time_ms,I,II,III,aVR,aVL,aVF,V1,V2,V3,V4,V5,V6
0.0,0,0,0,0,0,0,0,0,1,0,-1,0
1.0,0,0,0,0,0,0,0,0,1,0,-1,0
2.0,0,0,0,0,0,0,0,0,1,0,-1,0
3.0,0,0,0,0,0,0,0,0,1,0,-1,0
4.0,0,0,0,0,0,0,0,0,1,0,-1,0
5.0,0,0,0,0,0,0,0,0,1,0,-1,0
6.0,0,0,0,0,0,0,0,0,1,0,-1,0
7.0,0,0,0,0,0,0,0,0,1,0,-1,0
8.0,0,0,0,0,0,0,0,0,1,0,-1,0
9.0,0,0,0,0,0,0,0,0,1,0,-1,0
10.0,0,0,0,0,0,0,0,0,1,0,-1,0
11.0,0,0,0,0,0,0,0,0,1,0,-1,0
12.0,0,0,0,0,0,0,0,0,1,0,-1,0
13.0,0,0,0,0,0,0,0,0,1,0,-1,0
14.0,0,0,0,0,0,0,0,0,1,0,-1,0
15.0,0,0,0,0,0,0,0,0,1,0,-1,0
16.0,0,0,0,0,0,0,0,0,1,0,-1,0
17.0,0,0,0,0,0,0,0,0,1,0,-1,0
18.0,0,0,0,0,0,0,0,0,1,0,-1,0
19.0,0,0,0,0,0,0,0,0,1,0,-1,0
20.0,0,0,0,0,0,0,0,0,1,0,-1,0
21.0,0,0,0,0,0,0,0,0,1,0,-1,0
22.0,0,0,0,0,0,0,0,0,1,0,-1,0
23.0,0,0,0,0,0,0,0,0,1,0,-1,0
24.0,0,0,0,0,0,0,0,0,1,0,-1,0
25.0,0,0,0,0,0,0,0,0,1,0,-1,0
26.0,0,0,0,0,0,0,0,0,1,0,-1,0
27.0,0,0,0,0,0,0,0,0,1,0,-1,0
28.0,0,0,0,0,0,0,0,0,1,0,-1,0
29.0,0,0,0,0,0,0,0,0,1,0,-1,0
30.0,0,0,0,0,0,0,0,0,1,0,-1,0
31.0,0,0,0,0,0,0,0,0,1,0,-1,0
32.0,0,0,0,0,0,0,0,0,1,0,-1,0
33.0,0,0,0,0,0,0,0,0,1,0,-1,0
34.0,0,0,0,0,0,0,0,0,1,0,-1,0
35.0,0,0,0,0,0,0,0,0,1,0,-1,0
36.0,0,0,0,0,0,0,0,0,0,0,-1,0
37.0,0,0,0,0,0,0,0,0,0,0,-1,0
38.0,0,0,0,0,0,0,0,0,0,0,-1,0
39.0,0,0,0,0,0,0,0,0,0,0,-1,0
40.0,0,0,0,0,0,0,0,0,0,0,-1,0
41.0,0,0,0,0,0,0,0,0,0,0,-1,0
42.0,0,0,0,0,0,0,0,0,0,0,-1,0
43.0,0,0,0,0,0,0,0,0,0,0,-1,0
44.0,0,0,0,0,0,0,0,0,0,0,-1,1
45.0,0,0,0,0,0,0,0,0,0,0,-1,1
46.0,0,0,0,0,0,0,0,0,0,0,-1,1
47.0,0,0,0,0,0,0,0,0,0,0,-1,1
48.0,0,0,0,0,0,0,0,0,0,0,-1,1
49.0,0,0,0,0,0,0,0,0,0,0,-1,1
50.0,0,0,0,0,0,0,0,0,0,0,-1,1
51.0,0,0,0,0,0,0,0,0,0,0,-1,1
52.0,0,0,0,0,0,0,0,0,0,0,-1,1
53.0,0,0,0,0,0,0,0,0,0,0,-1,0
54.0,0,0,0,0,0,0,0,0,0,0,-1,0
55.0,0,0,0,0,0,0,0,0,0,0,-1,0
56.0,0,0,0,0,0,0,0,0,0,0,-1,0
57.0,0,0,0,0,0,0,0,0,0,0,-1,0
58.0,0,0,0,0,0,0,0,0,0,0,-1,0
59.0,0,0,0,0,0,0,0,0,0,0,-1,0
60.0,0,0,0,0,0,0,0,0,0,0,-1,0
61.0,0,0,0,0,0,0,0,-1,0,0,-1,0
62.0,0,0,0,0,0,0,0,-1,0,0,-1,0
63.0,0,0,0,0,0,0,0,-1,0,0,-1,0
64.0,0,0,0,0,0,0,0,-1,0,0,-1,0
65.0,0,0,0,0,0,0,0,-1,0,0,-1,0
66.0,0,0,0,0,0,0,0,-1,0,0,-1,0
67.0,0,0,0,0,0,0,0,-1,0,0,-1,0
68.0,0,0,0,0,0,0,0,0,0,0,-1,0
69.0,0,0,0,0,0,0,0,0,0,0,-1,0
70.0,0,0,0,0,0,0,0,0,0,0,-1,0
71.0,0,0,0,0,0,0,0,0,0,0,-1,1
72.0,0,0,0,0,0,0,0,0,0,0,0,1
73.0,0,0,0,0,0,0,0,0,0,0,0,1
74.0,0,0,0,0,0,0,0,0,0,0,0,1
75.0,0,0,0,0,0,0,0,0,0,0,0,1
76.0,0,0,0,0,0,0,0,0,0,0,0,1
77.0,0,0,0,0,0,0,0,0,0,0,0,1
78.0,0,0,0,0,0,0,0,0,0,0,0,0
79.0,0,0,0,0,0,0,0,0,0,0,0,0
80.0,0,0,0,0,0,0,0,0,-1,0,0,0
81.0,0,0,0,0,0,0,0,-1,-1,0,0,0
82.0,0,0,0,0,0,0,0,-1,-1,0,0,0
83.0,0,0,0,0,0,0,0,-1,-1,0,0,0
84.0,0,0,0,0,0,0,0,-1,-1,0,0,0
85.0,0,0,0,0,0,0,0,-1,-1,0,0,0
86.0,0,0,0,0,0,0,0,-1,-1,0,0,0
87.0,0,0,0,0,0,0,0,-1,-1,0,0,0
88.0,0,0,0,0,0,0,0,-1,-1,0,0,0
89.0,0,0,0,0,0,0,0,-1,-1,0,0,0
90.0,0,0,0,0,0,0,0,-1,-1,0,0,0
91.0,0,0,0,0,0,0,0,-1,-1,0,0,0
92.0,0,0,0,0,0,0,0,-1,-1,0,0,0
93.0,0,0,0,0,0,0,0,-1,-1,0,0,0
94.0,0,0,0,0,0,0,0,-1,-1,0,0,0
95.0,0,0,0,0,0,0,0,-1,-1,0,0,0
96.0,0,0,0,0,0,0,0,-1,-1,0,0,0
97.0,0,0,0,0,0,0,0,-1,-1,0,0,0
98.0,0,0,0,0,0,0,0,-1,-1,0,0,0
99.0,0,0,0,0,0,0,0,-1,-1,0,0,0
100.0,0,0,0,0,0,0,0,-1,-1,0,0,0
101.0,0,0,0,0,0,0,0,-1,-1,0,0,0
102.0,0,0,0,0,0,0,0,-1,-1,0,0,0
103.0,0,0,0,0,0,0,0,-1,-1,0,0,0
104.0,0,0,0,0,0,0,0,-1,-1,0,0,0
105.0,0,0,0,0,0,0,0,-1,-1,0,0,0
106.0,0,0,0,0,0,0,0,-1,-1,0,0,0
107.0,0,0,0,0,0,0,0,-1,-1,0,0,0
108.0,0,0,0,0,0,0,0,-1,-1,0,0,0
109.0,0,0,0,0,0,0,0,-1,-1,0,0,0
110.0,0,0,0,0,0,0,0,-1,-1,0,0,0
111.0,0,0,0,0,0,0,0,-1,-1,0,0,0
112.0,0,0,0,0,0,0,0,-1,-1,0,0,0
113.0,0,0,0,0,0,0,0,-1,-1,0,0,0
114.0,0,0,0,0,0,0,0,-1,-1,0,0,0
115.0,0,0,0,0,0,0,0,-1,-1,0,0,0
116.0,0,0,0,0,0,0,0,-1,-1,0,0,0
117.0,0,0,0,0,0,0,0,-1,-1,0,0,0
118.0,0,0,0,0,0,0,0,-1,-1,0,0,0
119.0,0,0,0,0,0,0,0,-1,-1,0,0,0
120.0,0,0,0,0,0,0,0,-1,-1,0,0,0
121.0,0,0,0,0,0,0,0,-1,-1,0,0,0
122.0,0,0,0,0,0,0,0,-1,-1,0,0,0
123.0,0,0,0,0,0,0,0,-1,-1,0,0,0
124.0,0,0,0,0,0,0,0,-1,-1,0,0,0
125.0,0,0,0,0,0,0,0,-1,-1,0,0,0
126.0,0,0,0,0,0,0,0,-1,-1,0,0,0
127.0,0,0,0,0,0,0,0,-1,-1,0,0,0
128.0,0,0,0,0,0,0,0,-1,-1,0,0,0
129.0,0,0,0,0,0,0,0,-1,-1,0,0,0
130.0,-1,0,0,0,0,0,0,-1,-1,0,0,0
131.0,-1,0,0,0,0,0,0,-1,-1,0,0,0
132.0,-1,0,0,0,0,0,0,-1,-1,0,0,0
133.0,-1,0,0,0,0,0,0,-1,-1,0,0,0
134.0,0,0,0,0,0,0,0,-1,-1,0,0,1
135.0,0,0,0,0,0,0,0,-1,-1,0,0,1
136.0,0,0,0,0,0,0,0,0,-1,0,0,1
137.0,0,0,0,0,0,0,0,0,-1,0,0,1
138.0,0,0,0,0,0,0,0,0,-1,0,0,1
139.0,0,0,0,0,0,0,0,-1,-1,0,0,1
140.0,0,0,0,0,0,0,0,-1,-1,0,0,1
141.0,0,0,0,0,0,0,0,-1,-1,0,0,1
142.0,0,0,0,0,0,0,0,-1,-1,0,0,1
143.0,0,0,0,0,0,0,0,-1,-1,0,0,1
144.0,0,0,0,0,0,0,0,-1,-1,0,0,1
145.0,0,0,0,0,0,0,0,-1,-1,0,0,1
146.0,0,0,0,0,0,0,0,-1,-1,1,0,1
147.0,0,0,0,0,0,0,0,-1,-1,1,0,1
148.0,0,0,0,0,0,0,0,-1,-1,1,0,1
149.0,0,0,0,0,0,0,0,-1,-1,1,1,1
150.0,0,0,0,0,0,0,0,0,-1,1,1,1
151.0,0,0,0,0,0,0,0,-1,-1,1,1,1
152.0,0,0,0,0,0,0,0,-1,-1,1,1,0
153.0,0,0,0,0,0,0,0,-1,-1,1,1,0
154.0,0,0,0,0,0,0,0,-1,-1,1,1,0
155.0,0,0,0,0,0,0,0,-1,-1,1,0,0
156.0,0,0,0,0,0,0,0,-1,-1,1,0,0
157.0,0,0,0,0,0,0,0,-1,-1,1,0,0
158.0,0,0,0,0,0,0,0,-1,-1,1,0,0
159.0,0,0,0,0,0,0,0,-1,-1,1,0,0
160.0,0,0,0,0,0,0,0,-1,-1,1,0,0
161.0,0,0,0,0,0,0,0,-1,-1,1,0,0
162.0,0,0,0,0,0,0,0,-1,-1,1,0,0
163.0,0,0,0,0,0,0,0,-1,-1,1,0,0
164.0,0,0,0,0,0,0,0,-1,-1,1,0,0
165.0,0,0,0,0,0,0,0,-1,-1,1,0,0
166.0,0,0,0,0,0,0,0,-1,-1,1,0,0
167.0,0,0,0,0,0,0,0,-1,-1,1,0,0
168.0,0,0,0,0,0,0,0,-1,-1,1,0,0
169.0,0,0,0,0,0,0,0,0,-1,1,0,0
170.0,0,0,0,0,0,0,0,0,-1,1,1,0
171.0,0,0,0,0,0,0,0,0,-1,1,1,0
172.0,0,0,0,0,0,0,0,0,-1,1,1,0
173.0,0,0,0,0,0,0,0,0,-1,1,1,0
174.0,0,0,0,0,0,0,0,0,-1,1,1,0
175.0,0,0,0,0,0,0,0,0,-1,1,1,0
176.0,0,0,0,0,0,0,0,0,-1,1,1,0
177.0,0,0,0,0,0,0,0,0,-1,1,1,0
178.0,0,0,0,0,0,0,0,0,-1,1,1,0
179.0,0,0,0,0,0,0,0,0,-1,1,1,0
180.0,0,0,0,0,0,0,0,0,-1,1,1,0
181.0,0,0,0,0,0,0,0,-1,-1,1,1,0
182.0,0,0,0,0,0,0,0,-1,-1,1,1,0
183.0,0,0,0,0,0,0,0,-1,-1,1,1,0
184.0,0,0,0,0,0,0,0,-1,-1,1,1,0
185.0,0,0,0,0,0,0,0,-1,-1,1,1,0
186.0,0,0,0,0,0,0,0,-1,-1,1,1,0
187.0,0,0,0,0,0,0,0,0,-1,1,1,0
188.0,0,0,0,0,0,0,0,0,-1,1,1,0
189.0,0,0,0,0,0,0,0,0,-1,1,1,0
190.0,0,0,0,0,0,0,0,0,-1,1,1,0
191.0,0,0,0,0,0,0,0,0,-1,1,1,0
192.0,0,0,0,0,0,0,0,0,-1,1,1,0
193.0,0,0,0,0,0,0,0,0,-1,1,1,0
194.0,0,0,0,0,0,0,0,0,-1,1,1,0
195.0,0,0,0,0,0,0,0,0,-1,1,1,0
196.0,0,0,0,0,0,0,0,0,-1,1,1,0
197.0,0,0,0,0,0,0,0,0,-1,1,1,1
198.0,0,0,0,0,0,0,0,0,-1,1,1,1
199.0,0,0,0,0,0,0,0,0,-1,1,1,1
200.0,0,0,0,0,0,0,0,0,-1,1,1,0
201.0,0,0,0,0,0,0,0,0,-1,1,1,0
202.0,0,0,0,0,0,0,0,0,-1,1,1,0
203.0,0,0,0,0,0,0,0,0,-1,1,1,0
204.0,0,0,0,0,0,0,0,0,-1,1,1,0
205.0,0,0,0,0,0,0,0,0,-1,2,1,0
206.0,0,0,0,0,0,0,0,0,-1,2,1,0
207.0,0,0,0,0,0,0,0,0,-1,2,1,0
208.0,0,0,0,0,0,0,0,0,-1,2,1,0
209.0,0,0,0,0,0,0,0,0,-1,2,1,0
210.0,0,0,0,0,0,0,0,0,-1,2,1,0
211.0,0,0,0,0,0,0,0,0,-1,2,1,0
212.0,0,0,0,0,0,0,0,0,-1,2,1,0
213.0,0,0,0,0,0,0,0,0,-1,2,1,0
214.0,0,0,0,0,0,0,0,0,-1,2,1,0
215.0,0,0,0,0,0,0,0,0,-1,2,1,0
216.0,0,0,0,0,0,0,0,0,-1,2,1,0
217.0,0,0,0,0,0,0,0,0,-1,2,1,0
218.0,0,0,0,0,0,0,0,0,-1,2,1,0
219.0,0,0,0,0,0,0,0,0,-1,2,1,0
220.0,0,0,0,0,0,0,0,0,-1,2,1,0
221.0,0,0,0,0,0,0,0,0,-1,2,1,0
222.0,0,0,0,0,0,0,0,0,-1,2,1,0
223.0,0,0,0,0,0,0,0,0,-1,2,1,0
224.0,0,0,0,0,0,0,0,0,-1,2,1,0
225.0,0,0,0,0,0,0,0,0,-1,2,1,0
226.0,0,0,0,0,0,0,0,0,-1,2,1,0
227.0,0,0,0,0,0,0,0,0,-1,2,1,0
228.0,0,0,0,0,0,0,0,0,-1,2,1,0
229.0,0,0,0,0,0,0,0,0,-1,2,1,0
230.0,0,0,0,0,0,0,0,0,-1,2,1,0
231.0,-1,0,0,0,0,0,0,0,-1,2,1,0
232.0,-1,0,0,0,0,0,0,0,-1,2,1,0
233.0,-1,0,0,0,0,0,0,0,-1,2,1,0
234.0,-1,0,0,0,0,0,0,0,-1,2,1,0
235.0,-1,0,0,0,0,0,0,0,-1,2,1,0
236.0,0,0,0,0,0,0,0,0,-1,2,1,0
237.0,0,0,0,0,0,0,0,0,-1,2,1,0
238.0,0,0,0,0,0,0,0,0,-1,2,1,0
239.0,0,0,0,0,0,0,0,0,-1,2,1,0
240.0,0,0,0,0,0,0,0,0,0,2,1,0
241.0,0,0,0,0,0,0,0,0,0,2,1,0
242.0,0,0,0,0,0,0,0,0,0,2,1,1
243.0,0,0,0,0,0,0,0,0,0,2,1,1
244.0,0,0,0,0,0,0,0,0,-1,2,1,1
245.0,0,-2,0,0,0,0,0,-1,-7,1,0,-1
246.0,1,-4,-1,0,0,-1,0,-2,-10,1,0,-3
247.0,1,-4,-1,0,0,-1,0,-2,-8,1,-1,-3
248.0,0,-2,-1,0,0,-1,0,-1,-4,1,0,-1
249.0,0,-2,-1,0,0,-1,0,-1,-1,1,0,0
250.0,0,-1,-1,0,0,-1,0,0,1,1,0,0
251.0,0,0,0,0,0,0,0,1,2,2,1,1
252.0,0,0,0,0,0,0,0,1,3,2,1,1
253.0,0,0,0,0,0,0,0,1,3,2,1,2
254.0,0,1,0,0,0,0,0,1,2,3,1,2
255.0,0,1,0,0,0,0,0,1,2,3,1,2
256.0,0,1,0,0,0,0,0,1,2,3,2,2
257.0,0,0,0,0,0,0,0,1,2,3,2,2
258.0,0,0,0,0,0,0,0,1,2,3,2,2
259.0,0,0,0,0,0,0,0,1,2,3,2,2
260.0,-1,0,0,0,0,0,0,1,1,3,2,1
261.0,-1,0,0,0,0,0,0,1,1,3,2,1
262.0,-1,0,0,0,0,0,0,1,1,4,2,1
263.0,-1,0,0,0,0,0,0,1,0,4,2,1
264.0,-1,0,0,0,0,0,0,1,0,4,2,1
265.0,-1,0,0,0,0,0,0,1,0,4,2,1
266.0,-1,0,0,0,0,0,0,1,0,4,2,1
267.0,-1,0,0,0,0,0,0,1,0,4,2,1
268.0,-1,0,0,0,0,0,0,1,0,4,2,1
269.0,-1,0,0,0,0,0,0,1,0,4,2,1
270.0,-1,0,0,0,0,0,0,1,0,4,2,1
271.0,-1,0,0,0,0,0,0,1,0,4,2,1
272.0,-1,0,0,0,0,0,0,1,0,4,2,1
273.0,-1,0,0,0,0,0,0,1,1,4,2,1
274.0,-1,0,0,0,0,0,0,1,1,4,2,0
275.0,0,0,0,0,0,0,0,1,1,4,2,0
276.0,0,0,0,0,0,0,0,2,2,4,2,0
277.0,0,0,0,0,0,0,0,2,2,4,2,0
278.0,0,0,0,0,0,0,0,2,2,4,2,0
279.0,-1,0,0,0,0,0,0,2,2,4,2,0
280.0,-1,0,0,0,0,0,0,2,2,4,1,0
281.0,-1,0,0,0,0,0,0,2,2,4,1,-1
282.0,-1,-1,0,0,0,0,0,2,3,4,1,-1
283.0,-1,-1,0,0,0,0,0,2,3,4,1,-1
284.0,-1,-1,0,1,0,0,1,2,4,4,1,-2
285.0,-2,-1,0,1,0,0,1,3,4,4,1,-2
286.0,-2,-1,0,1,0,0,1,3,5,4,1,-2
287.0,-2,-1,0,1,-1,0,1,3,5,5,1,-2
288.0,-2,-1,0,1,-1,0,1,3,5,5,1,-2
289.0,-2,-1,0,1,-1,0,2,4,6,5,1,-3
290.0,-2,-1,0,1,-1,0,2,4,6,5,1,-3
291.0,-1,-1,0,1,-1,0,2,4,6,5,1,-3
292.0,-1,-1,0,1,-1,0,2,5,6,5,1,-3
293.0,-1,-1,0,1,0,0,2,5,6,5,1,-2
294.0,-1,-1,0,1,0,0,2,5,6,5,1,-2
295.0,-1,-1,0,1,0,0,2,5,6,6,1,-2
296.0,-1,-1,0,1,0,0,2,4,6,6,1,-2
297.0,-1,-1,0,1,0,0,2,4,6,7,2,-2
298.0,-1,-1,0,1,0,0,1,4,5,7,2,-1
299.0,-1,-1,0,1,0,0,1,4,5,8,2,-1
300.0,-1,-1,0,1,0,0,1,3,5,8,2,0
301.0,-1,-1,0,1,0,0,1,3,5,9,3,0
302.0,0,-1,0,1,0,0,0,2,4,10,4,0
303.0,0,-1,0,1,0,0,0,2,4,10,4,0
304.0,0,0,0,1,0,0,0,2,4,11,5,1
305.0,0,0,0,1,0,0,0,1,3,11,6,1
306.0,0,0,0,1,0,0,0,0,2,12,7,2
307.0,0,0,0,0,0,0,-1,-1,2,13,7,3
308.0,0,0,0,0,0,0,-1,-2,2,13,8,3
309.0,0,1,0,0,0,0,-2,-3,1,14,9,4
310.0,0,2,0,0,0,0,-2,-4,1,14,10,5
311.0,0,2,0,0,0,0,-2,-5,0,14,10,5
312.0,0,3,1,0,0,0,-3,-7,-1,15,11,7
313.0,0,4,1,0,0,1,-4,-8,-3,15,12,7
314.0,1,5,1,0,0,1,-5,-9,-4,15,12,8
315.0,1,5,1,0,0,1,-5,-11,-6,14,12,9
316.0,1,6,2,-1,-1,2,-6,-12,-8,14,12,10
317.0,1,6,2,-1,-1,2,-6,-14,-11,12,12,10
318.0,1,7,2,-1,-1,2,-7,-15,-13,11,12,11
319.0,1,7,2,-1,-1,2,-7,-16,-16,10,12,11
320.0,1,7,3,-2,-1,3,-8,-18,-19,8,11,12
321.0,1,7,3,-2,-1,3,-9,-20,-23,6,10,13
322.0,1,7,3,-2,-1,3,-9,-22,-28,4,10,13
323.0,1,7,3,-2,-1,4,-10,-24,-31,1,9,14
324.0,1,8,3,-2,-1,4,-10,-26,-34,-1,8,15
325.0,1,8,4,-3,-1,4,-11,-29,-38,-5,7,16
326.0,1,8,4,-3,-1,4,-11,-31,-42,-8,6,17
327.0,1,8,4,-3,-1,5,-11,-33,-44,-11,5,18
328.0,1,8,4,-3,-1,5,-12,-35,-47,-14,4,19
329.0,1,9,5,-3,-1,5,-12,-37,-49,-17,3,20
330.0,1,9,5,-3,-2,5,-12,-39,-51,-21,2,21
331.0,1,9,5,-3,-2,6,-13,-41,-53,-23,2,22
332.0,1,9,5,-4,-2,6,-13,-42,-54,-26,1,23
333.0,1,10,6,-4,-2,6,-14,-44,-55,-30,0,24
334.0,1,10,6,-4,-2,6,-14,-45,-56,-33,-1,25
335.0,1,10,6,-4,-2,7,-14,-46,-57,-35,-1,26
336.0,1,10,6,-4,-2,7,-15,-47,-57,-38,-2,27
337.0,1,11,7,-4,-2,7,-15,-47,-58,-41,-3,27
338.0,1,11,7,-4,-3,7,-15,-48,-58,-43,-4,28
339.0,1,11,7,-4,-3,8,-16,-48,-57,-45,-5,29
340.0,1,11,7,-5,-3,8,-16,-48,-57,-47,-6,29
341.0,1,11,7,-5,-3,8,-16,-48,-57,-49,-7,29
342.0,1,11,7,-5,-3,8,-16,-48,-56,-51,-7,30
343.0,1,11,7,-5,-3,8,-17,-47,-56,-52,-8,30
344.0,1,11,7,-5,-3,8,-17,-47,-55,-54,-9,30
345.0,1,11,8,-5,-3,8,-17,-46,-54,-55,-10,30
346.0,1,11,8,-5,-3,8,-17,-46,-53,-57,-11,30
347.0,1,11,8,-5,-3,8,-17,-45,-52,-58,-12,29
348.0,1,11,8,-5,-3,8,-17,-44,-51,-59,-13,29
349.0,1,10,8,-5,-3,9,-16,-44,-51,-60,-14,29
350.0,1,10,8,-5,-3,9,-16,-43,-50,-61,-15,29
351.0,1,10,8,-5,-3,9,-16,-42,-49,-62,-16,28
352.0,1,10,8,-5,-3,9,-16,-42,-49,-63,-17,27
353.0,1,10,8,-5,-3,9,-15,-41,-48,-64,-19,26
354.0,1,9,8,-5,-3,8,-15,-40,-47,-64,-20,25
355.0,1,9,8,-5,-3,8,-14,-39,-46,-65,-21,24
356.0,1,9,8,-5,-3,8,-14,-38,-45,-65,-22,23
357.0,1,8,7,-5,-3,8,-13,-37,-44,-65,-23,22
358.0,1,8,7,-5,-3,8,-13,-36,-43,-66,-24,20
359.0,1,7,7,-5,-3,8,-12,-35,-41,-66,-25,19
360.0,0,7,7,-5,-3,8,-11,-34,-40,-66,-26,17
361.0,0,6,7,-4,-2,7,-10,-33,-38,-66,-27,16
362.0,0,5,6,-4,-2,7,-10,-31,-36,-66,-28,14
363.0,0,5,6,-4,-2,7,-9,-30,-34,-65,-28,13
364.0,0,4,6,-4,-2,7,-8,-28,-32,-65,-29,11
365.0,0,4,6,-4,-2,6,-7,-26,-30,-64,-30,10
366.0,0,3,6,-3,-2,6,-6,-25,-28,-63,-30,9
367.0,0,3,6,-3,-2,6,-4,-23,-25,-62,-31,8
368.0,0,3,5,-3,-2,6,-3,-21,-22,-61,-31,6
369.0,-1,2,5,-3,-2,5,-2,-20,-20,-60,-32,5
370.0,-1,2,5,-2,-2,5,-1,-18,-18,-59,-32,3
371.0,-1,2,5,-2,-2,5,0,-17,-15,-58,-32,2
372.0,-2,1,5,-2,-2,5,1,-15,-12,-56,-32,1
373.0,-2,1,5,-2,-2,4,2,-13,-10,-55,-32,0
374.0,-2,0,4,-1,-2,4,3,-12,-8,-54,-32,-1
375.0,-3,0,4,-1,-2,4,4,-10,-6,-52,-32,-3
376.0,-3,0,4,-1,-2,4,5,-9,-4,-51,-32,-4
377.0,-3,0,4,0,-2,3,6,-8,-2,-49,-32,-5
378.0,-4,-1,4,0,-2,3,7,-6,0,-48,-32,-7
379.0,-4,-2,4,0,-3,3,8,-5,1,-46,-32,-8
380.0,-4,-2,3,0,-3,2,9,-4,2,-45,-32,-9
381.0,-5,-3,3,0,-3,2,10,-3,2,-43,-31,-10
382.0,-5,-3,3,0,-3,2,11,-2,3,-42,-31,-10
383.0,-5,-4,3,1,-3,1,11,-1,3,-40,-31,-11
384.0,-5,-4,3,1,-3,1,12,0,3,-39,-31,-12
385.0,-6,-4,2,1,-3,1,13,0,3,-38,-30,-13
386.0,-6,-5,2,2,-3,0,13,1,3,-36,-30,-13
387.0,-6,-5,2,2,-3,0,14,2,2,-35,-30,-14
388.0,-6,-5,2,2,-3,0,14,2,2,-34,-29,-15
389.0,-7,-6,2,3,-3,0,15,2,2,-32,-29,-15
390.0,-7,-6,2,3,-3,0,15,2,1,-31,-29,-16
391.0,-7,-7,2,3,-3,0,15,3,0,-30,-28,-16
392.0,-7,-7,1,4,-3,0,15,3,-1,-29,-28,-16
393.0,-8,-7,1,4,-3,0,15,3,-2,-28,-27,-16
394.0,-8,-7,1,4,-3,-1,15,3,-3,-26,-27,-17
395.0,-8,-7,1,5,-3,-1,14,3,-4,-25,-26,-17
396.0,-8,-7,1,5,-3,-1,14,2,-5,-24,-26,-17
397.0,-8,-8,1,5,-3,-1,13,2,-7,-23,-25,-17
398.0,-8,-8,1,5,-3,-1,13,2,-8,-22,-24,-17
399.0,-8,-8,1,5,-3,-2,12,2,-9,-21,-24,-17
400.0,-8,-8,0,6,-3,-2,11,1,-10,-20,-23,-17
401.0,-8,-8,0,6,-3,-2,11,0,-10,-20,-23,-17
402.0,-8,-8,0,6,-3,-2,10,0,-11,-19,-22,-16
403.0,-8,-8,0,6,-3,-2,9,-1,-11,-18,-21,-16
404.0,-7,-8,0,6,-3,-2,8,-1,-12,-16,-20,-16
405.0,-7,-8,0,6,-3,-3,8,-1,-12,-16,-20,-16
406.0,-7,-8,0,6,-3,-3,8,-1,-11,-15,-19,-16
407.0,-7,-8,0,6,-3,-3,7,-1,-11,-14,-19,-15
408.0,-7,-7,0,6,-3,-3,7,-1,-10,-13,-18,-15
409.0,-6,-7,0,6,-3,-3,6,-1,-10,-12,-17,-15
410.0,-6,-7,0,6,-3,-3,6,-1,-9,-11,-17,-14
411.0,-6,-7,0,6,-3,-3,5,-1,-8,-10,-16,-14
412.0,-6,-7,0,6,-3,-3,4,0,-7,-9,-15,-13
413.0,-6,-7,0,6,-3,-3,4,0,-6,-8,-14,-13
414.0,-5,-6,0,6,-3,-3,4,0,-5,-7,-14,-13
415.0,-5,-6,0,6,-2,-3,3,1,-4,-6,-13,-12
416.0,-5,-6,0,6,-2,-3,3,1,-3,-5,-12,-12
417.0,-5,-6,0,6,-2,-3,3,2,-2,-4,-11,-11
418.0,-4,-6,0,6,-2,-3,3,2,-1,-3,-11,-11
419.0,-4,-6,0,6,-2,-3,2,2,0,-2,-10,-11
420.0,-4,-6,0,6,-2,-3,2,3,1,-1,-9,-10
421.0,-3,-5,-1,5,-2,-3,2,3,2,0,-8,-10
422.0,-3,-5,-1,5,-2,-3,2,4,2,1,-8,-9
423.0,-3,-5,-1,5,-1,-3,2,4,3,1,-7,-9
424.0,-3,-5,-1,5,-1,-3,2,5,3,2,-6,-9
425.0,-3,-5,-1,5,-1,-3,2,5,4,3,-5,-8
426.0,-2,-5,-1,5,-1,-3,2,6,5,4,-5,-8
427.0,-2,-5,-1,5,-1,-3,1,6,5,5,-4,-8
428.0,-2,-5,-1,5,-1,-3,1,6,6,5,-3,-8
429.0,-2,-5,-1,4,-1,-3,1,7,6,6,-3,-7
430.0,-2,-5,-1,4,0,-3,1,7,7,7,-2,-7
431.0,-2,-4,-2,4,0,-3,1,7,7,8,-1,-7
432.0,-2,-4,-2,4,0,-3,1,8,7,8,-1,-7
433.0,-1,-4,-2,4,0,-3,1,8,8,9,-1,-7
434.0,-1,-4,-2,4,0,-3,1,8,8,10,0,-6
435.0,-1,-4,-2,4,0,-3,1,8,8,11,1,-6
436.0,-1,-4,-2,4,0,-3,1,8,8,11,1,-6
437.0,-1,-4,-2,4,0,-3,1,8,8,11,1,-6
438.0,-1,-4,-2,4,0,-3,1,8,8,12,2,-6
439.0,-1,-4,-2,3,0,-3,1,8,8,13,2,-6
440.0,-1,-4,-2,3,0,-3,1,9,8,13,2,-6
441.0,-1,-4,-2,3,0,-3,1,9,8,14,2,-6
442.0,-1,-5,-2,3,0,-4,1,9,9,14,2,-6
443.0,-1,-5,-2,3,0,-4,1,9,9,15,3,-5
444.0,-1,-5,-2,3,0,-4,1,9,9,15,3,-5
445.0,-1,-4,-2,3,0,-4,1,9,9,15,3,-5
446.0,-1,-4,-2,3,0,-3,1,9,9,16,4,-5
447.0,-1,-4,-2,3,0,-3,1,9,10,16,4,-5
448.0,-1,-4,-2,3,0,-3,1,9,10,16,4,-5
449.0,-1,-4,-2,3,0,-3,1,10,10,17,4,-5
450.0,-1,-4,-2,3,0,-3,1,10,10,17,5,-5
451.0,-1,-4,-2,3,0,-3,1,10,10,18,5,-5
452.0,-1,-4,-2,3,0,-3,1,10,10,18,5,-5
453.0,-1,-4,-2,3,0,-3,1,10,10,18,5,-5
454.0,-1,-4,-2,3,0,-3,1,10,10,18,6,-5
455.0,-1,-4,-2,3,0,-3,1,9,10,18,6,-5
456.0,-1,-4,-2,3,0,-3,1,9,10,18,6,-5
457.0,-1,-4,-2,3,0,-3,1,9,10,19,6,-5
458.0,-1,-4,-2,2,0,-3,1,9,10,19,6,-5
459.0,-1,-4,-2,2,0,-3,1,9,10,19,6,-5
460.0,-1,-4,-2,2,0,-3,1,9,10,19,6,-5
461.0,-1,-4,-2,2,0,-3,1,9,10,19,6,-5
462.0,-1,-4,-2,2,0,-3,1,10,10,20,6,-5
463.0,-1,-4,-2,2,0,-3,1,10,10,20,6,-5
464.0,-1,-4,-2,2,0,-3,1,10,10,20,7,-5
465.0,-1,-4,-2,2,0,-3,1,10,10,20,7,-5
466.0,0,-4,-2,2,0,-3,1,10,10,20,7,-5
467.0,0,-4,-2,2,0,-3,1,10,11,20,7,-5
468.0,0,-4,-3,2,0,-3,1,10,11,20,7,-5
469.0,0,-4,-3,2,1,-3,1,10,11,20,7,-5
470.0,0,-4,-3,2,1,-3,1,10,11,20,7,-5
471.0,0,-4,-3,2,1,-3,1,10,11,21,7,-5
472.0,0,-4,-3,2,1,-3,1,10,11,21,7,-5
473.0,0,-4,-3,2,1,-3,1,10,11,21,7,-5
474.0,0,-4,-3,2,1,-3,1,10,11,21,7,-5
475.0,0,-4,-3,2,1,-3,1,10,10,21,7,-5
476.0,0,-4,-3,2,1,-3,1,10,10,21,7,-5
477.0,0,-4,-3,2,1,-3,1,10,10,21,7,-5
478.0,0,-4,-3,2,1,-3,0,10,10,21,7,-5
479.0,0,-4,-3,2,1,-3,0,9,10,21,8,-5
480.0,0,-4,-3,2,1,-3,0,9,10,21,8,-5
481.0,0,-4,-3,2,1,-3,0,10,10,21,8,-5
482.0,0,-3,-3,2,1,-3,0,10,10,21,8,-5
483.0,0,-3,-3,2,1,-3,0,10,10,21,8,-5
484.0,0,-3,-3,2,1,-3,0,10,11,21,8,-5
485.0,0,-3,-3,2,1,-3,0,10,11,21,8,-5
486.0,0,-3,-3,2,1,-3,0,10,11,21,8,-5
487.0,0,-3,-3,2,1,-3,0,10,11,21,8,-5
488.0,0,-3,-3,2,1,-3,0,10,11,21,8,-5
489.0,0,-3,-3,2,1,-3,0,10,11,21,8,-5
490.0,0,-3,-3,2,1,-3,0,10,11,21,8,-5
491.0,0,-3,-3,2,1,-3,0,10,11,21,8,-5
492.0,0,-3,-3,2,1,-3,0,10,11,21,8,-5
493.0,0,-3,-2,2,1,-3,1,10,11,21,8,-5
494.0,0,-3,-2,2,1,-3,1,10,11,21,8,-5
495.0,0,-3,-2,2,1,-3,1,10,11,21,8,-5
496.0,0,-3,-2,2,1,-3,1,10,11,21,8,-5
497.0,0,-3,-2,2,1,-3,1,10,11,22,8,-5
498.0,0,-3,-2,2,1,-3,1,10,11,22,8,-5
499.0,0,-3,-2,2,1,-3,1,10,11,22,8,-5
500.0,0,-3,-2,2,1,-3,0,10,11,22,8,-5
501.0,0,-3,-2,2,1,-3,0,10,11,22,8,-5
502.0,0,-3,-2,2,1,-3,0,10,11,22,8,-5
503.0,0,-3,-2,2,1,-3,0,10,11,22,8,-5
504.0,0,-4,-2,2,1,-3,0,10,11,22,8,-5
505.0,0,-4,-2,2,1,-3,1,10,11,22,8,-5
506.0,0,-4,-2,2,1,-3,1,10,11,22,8,-5
507.0,0,-4,-2,2,1,-3,1,11,12,22,8,-5
508.0,0,-4,-2,2,1,-3,1,11,12,22,8,-4
509.0,-1,-4,-3,2,1,-3,1,11,12,22,8,-4
510.0,-1,-4,-3,2,1,-3,1,11,12,22,8,-4
511.0,-1,-4,-3,2,1,-3,1,11,12,22,8,-4
512.0,-1,-4,-2,2,1,-3,1,11,12,22,9,-4
513.0,-1,-4,-2,2,0,-3,1,11,12,22,9,-4
514.0,-1,-4,-2,2,0,-3,1,11,12,22,9,-4
515.0,0,-3,-2,2,0,-3,1,11,12,22,9,-4
516.0,0,-3,-2,2,0,-3,1,11,12,22,9,-4
517.0,0,-3,-2,2,1,-3,1,11,12,22,9,-4
518.0,0,-3,-2,2,1,-3,1,11,12,22,9,-4
519.0,0,-3,-2,2,1,-3,1,11,12,22,9,-4
520.0,0,-3,-2,2,1,-3,1,11,12,22,9,-4
521.0,0,-3,-2,2,1,-3,1,11,12,22,9,-4
522.0,0,-3,-2,2,1,-3,1,11,12,22,9,-4
523.0,0,-3,-2,2,1,-3,1,11,12,22,9,-4
524.0,0,-3,-2,2,1,-3,1,11,12,23,9,-4
525.0,0,-3,-2,2,1,-3,1,11,12,23,9,-4
526.0,0,-3,-2,2,1,-3,1,11,12,23,9,-4
527.0,0,-3,-2,2,1,-3,1,11,12,23,9,-4
528.0,0,-3,-2,2,1,-3,1,11,12,23,9,-4
529.0,0,-3,-2,2,0,-3,1,11,12,23,9,-4
530.0,0,-3,-2,2,0,-3,1,11,13,23,9,-4
531.0,0,-3,-2,2,1,-3,1,11,13,23,9,-4
532.0,0,-3,-2,2,1,-3,1,11,13,23,9,-4
533.0,0,-3,-2,2,1,-3,1,11,12,23,9,-4
534.0,0,-3,-2,2,1,-3,1,11,12,23,9,-4
535.0,0,-3,-2,2,1,-3,1,11,12,23,9,-4
536.0,0,-3,-2,2,1,-3,1,11,12,23,9,-4
537.0,0,-3,-2,2,1,-3,1,11,12,23,9,-4
538.0,0,-3,-2,2,1,-3,1,11,12,23,10,-4
539.0,0,-3,-2,2,1,-3,1,11,13,23,10,-4
540.0,0,-3,-3,2,1,-3,1,11,13,23,10,-4
541.0,0,-3,-3,2,1,-3,1,11,13,23,10,-4
542.0,0,-3,-3,2,1,-3,1,11,13,23,10,-4
543.0,0,-3,-3,2,1,-3,1,12,13,23,10,-4
544.0,0,-3,-3,2,1,-3,1,12,13,24,10,-4
545.0,0,-3,-3,1,1,-3,1,12,13,24,10,-4
546.0,0,-3,-3,1,1,-3,1,12,13,24,10,-4
547.0,0,-3,-2,1,1,-3,1,12,14,24,10,-4
548.0,0,-3,-2,1,1,-3,1,12,14,24,10,-4
549.0,0,-3,-2,1,1,-3,1,12,14,24,10,-4
550.0,0,-3,-2,1,1,-3,1,12,14,24,10,-4
551.0,0,-3,-2,1,1,-3,1,12,14,24,10,-4
552.0,0,-3,-2,1,1,-3,1,12,14,24,10,-4
553.0,0,-3,-2,1,1,-3,1,12,14,24,10,-4
554.0,0,-3,-2,1,1,-3,1,12,14,25,11,-3
555.0,0,-3,-2,1,1,-2,1,12,14,25,11,-3
556.0,0,-3,-2,1,1,-2,1,12,14,25,11,-3
557.0,0,-3,-2,1,1,-2,1,12,14,25,11,-3
558.0,-1,-3,-2,1,0,-2,1,13,14,25,11,-3
559.0,-1,-3,-2,2,0,-2,1,13,15,25,11,-3
560.0,-1,-3,-2,2,0,-2,1,13,15,25,11,-3
561.0,-1,-3,-2,2,0,-2,1,13,15,25,11,-3
562.0,-1,-3,-2,2,0,-3,1,13,15,25,11,-3
563.0,-1,-3,-2,2,0,-3,1,13,15,26,12,-3
564.0,-1,-3,-2,2,0,-3,1,13,15,26,12,-3
565.0,-1,-3,-2,2,0,-3,1,13,15,26,12,-3
566.0,-1,-3,-2,2,0,-3,1,13,15,26,12,-3
567.0,-1,-3,-2,2,0,-2,1,13,15,26,12,-2
568.0,-1,-3,-2,2,0,-2,1,13,16,26,12,-2
569.0,-1,-3,-2,2,0,-2,1,13,16,26,12,-2
570.0,0,-3,-2,2,0,-2,1,13,16,27,12,-2
571.0,0,-3,-2,2,0,-2,1,13,16,27,13,-2
572.0,0,-3,-2,2,0,-2,1,13,16,27,13,-2
573.0,0,-3,-2,2,0,-2,1,13,16,27,13,-3
574.0,0,-3,-2,2,0,-2,1,14,16,27,13,-3
575.0,0,-3,-2,1,0,-2,1,14,16,27,13,-3
576.0,0,-3,-2,1,0,-2,1,14,16,28,13,-3
577.0,0,-3,-2,1,0,-2,1,14,17,28,13,-3
578.0,0,-2,-2,1,1,-2,1,14,17,28,13,-3
579.0,0,-2,-2,1,1,-2,1,14,17,28,13,-3
580.0,0,-2,-2,1,1,-2,1,14,17,28,13,-3
581.0,0,-2,-2,1,1,-2,1,14,17,29,14,-3
582.0,0,-2,-2,1,1,-2,1,14,17,29,14,-3
583.0,0,-2,-2,1,1,-2,1,14,18,29,14,-2
584.0,0,-2,-2,1,1,-2,1,15,18,29,14,-2
585.0,0,-2,-2,1,1,-2,1,15,18,29,14,-2
586.0,0,-2,-2,1,1,-2,1,15,18,30,14,-2
587.0,0,-2,-2,1,1,-2,1,15,19,30,15,-2
588.0,0,-2,-2,1,1,-2,1,15,19,30,15,-2
589.0,0,-2,-2,1,1,-2,1,16,19,30,15,-2
590.0,0,-2,-2,1,1,-2,1,16,19,31,15,-2
591.0,0,-2,-2,1,1,-2,1,16,20,31,15,-1
592.0,0,-2,-2,1,1,-2,1,16,20,31,15,-1
593.0,0,-2,-2,1,1,-2,1,16,20,32,16,-1
594.0,0,-2,-2,1,1,-2,1,16,20,32,16,-1
595.0,0,-2,-2,1,1,-2,1,16,20,32,16,-1
596.0,0,-2,-2,1,1,-2,1,17,20,32,16,-1
597.0,0,-2,-2,1,1,-2,1,17,21,33,17,-1
598.0,0,-3,-2,1,1,-2,1,17,21,33,17,-1
599.0,0,-3,-2,1,1,-2,1,17,21,33,17,-1
600.0,0,-3,-2,1,1,-2,1,17,21,34,17,-1
601.0,0,-3,-2,1,1,-2,1,17,21,34,18,-1
602.0,0,-3,-2,1,1,-2,1,17,21,34,18,-1
603.0,0,-3,-2,1,1,-2,1,17,21,34,18,-1
604.0,0,-3,-2,1,1,-2,1,18,22,35,18,0
605.0,0,-3,-2,1,1,-2,1,18,22,35,19,0
606.0,0,-3,-2,1,1,-2,1,18,22,36,19,0
607.0,0,-3,-2,1,1,-2,1,18,22,36,19,0
608.0,0,-2,-2,1,1,-2,1,18,22,36,19,0
609.0,0,-2,-3,1,1,-2,1,18,23,36,20,0
610.0,0,-2,-3,1,1,-2,1,18,23,37,20,0
611.0,0,-2,-3,1,1,-2,1,18,23,37,20,0
612.0,1,-2,-3,1,1,-2,1,18,23,37,20,0
613.0,1,-2,-3,1,1,-2,1,19,23,38,21,0
614.0,1,-1,-2,0,1,-2,1,19,23,38,21,0
615.0,1,-1,-2,0,1,-2,1,19,23,38,21,0
616.0,1,-1,-2,0,1,-2,1,19,24,39,21,0
617.0,1,-1,-2,0,1,-2,1,19,24,39,21,0
618.0,1,-1,-2,0,1,-2,0,19,24,39,22,0
619.0,1,-1,-2,0,1,-2,0,19,24,39,22,0
620.0,1,-1,-2,0,1,-2,0,19,24,40,22,0
621.0,1,-1,-2,0,1,-2,0,19,24,40,22,1
622.0,1,-1,-2,0,1,-2,0,20,24,40,23,1
623.0,1,-1,-2,0,1,-2,0,20,24,40,23,1
624.0,1,-1,-2,0,1,-2,0,20,25,41,23,1
625.0,1,-1,-2,0,1,-2,0,20,25,41,23,1
626.0,1,-1,-2,0,1,-2,0,20,25,41,24,1
627.0,1,-1,-2,0,1,-2,0,20,25,41,24,2
628.0,1,0,-2,0,1,-2,0,20,25,42,24,2
629.0,1,0,-2,0,1,-2,0,20,25,42,24,2
630.0,2,0,-2,0,2,-2,0,20,25,42,24,2
631.0,2,0,-2,0,2,-1,0,20,25,42,25,2
632.0,2,0,-2,0,2,-1,0,20,25,42,25,2
633.0,2,0,-2,0,2,-1,0,21,25,42,25,3
634.0,2,0,-2,0,2,-1,0,21,25,43,25,3
635.0,3,0,-2,0,2,-1,0,21,25,43,25,3
636.0,3,0,-2,0,2,-1,0,21,25,43,26,3
637.0,3,0,-2,0,2,-1,0,21,25,43,26,3
638.0,3,0,-2,0,2,-1,0,21,25,43,26,3
639.0,3,0,-2,0,2,-1,-1,21,25,43,26,3
640.0,3,0,-2,-1,2,-1,-1,21,25,43,26,3
641.0,3,0,-2,-1,2,-1,-1,20,25,43,26,4
642.0,3,0,-2,-1,2,-1,-1,20,25,43,26,4
643.0,3,1,-2,-1,2,-1,-1,20,25,43,26,4
644.0,3,1,-2,-1,2,-1,-1,20,25,43,26,4
645.0,4,1,-2,-1,2,-1,-1,20,25,43,27,4
646.0,4,1,-2,-1,2,-1,-1,20,25,43,27,4
647.0,4,1,-2,-1,2,-1,-1,20,25,43,27,5
648.0,4,2,-2,-1,2,0,-2,20,25,43,27,5
649.0,3,2,-2,-2,2,0,-2,20,25,43,27,5
650.0,3,2,-2,-2,2,0,-2,20,25,43,27,5
651.0,3,2,-2,-2,2,0,-2,20,25,43,27,5
652.0,3,2,-1,-2,2,0,-2,19,25,43,27,5
653.0,3,2,-1,-2,2,0,-2,19,24,43,27,6
654.0,3,2,-1,-2,2,0,-3,19,24,43,27,6
655.0,3,2,-1,-2,2,0,-3,19,24,43,27,6
656.0,3,3,-1,-2,2,0,-3,18,24,42,27,6
657.0,3,3,-1,-2,2,0,-3,18,23,42,27,6
658.0,3,3,-1,-2,2,0,-3,18,23,42,27,6
659.0,3,3,-1,-2,2,0,-3,17,23,42,27,6
660.0,3,3,-1,-2,2,0,-3,17,22,41,27,6
661.0,3,3,-1,-2,2,0,-4,17,22,41,27,7
662.0,3,3,-1,-2,2,0,-4,16,22,41,27,7
663.0,4,3,-1,-2,2,0,-4,16,21,40,26,7
664.0,4,3,-1,-3,2,0,-4,16,21,40,26,7
665.0,4,3,-1,-3,2,0,-4,15,21,40,26,7
666.0,4,3,-1,-3,2,0,-4,15,20,39,26,7
667.0,4,3,0,-3,2,0,-4,14,19,39,26,7
668.0,4,3,0,-3,2,0,-4,14,19,38,26,7
669.0,4,3,0,-3,2,0,-4,14,18,38,25,7
670.0,4,3,0,-3,2,1,-5,13,18,37,25,7
671.0,4,3,0,-3,2,1,-5,13,17,37,25,7
672.0,4,3,0,-3,2,1,-5,12,16,36,25,7
673.0,4,3,0,-3,2,1,-5,12,16,36,25,7
674.0,4,3,0,-3,2,1,-5,12,15,35,24,7
675.0,4,3,0,-3,2,1,-5,11,15,35,24,7
676.0,4,3,0,-3,2,1,-5,11,14,34,24,7
677.0,4,3,0,-3,2,1,-5,10,14,33,23,7
678.0,4,3,0,-3,2,1,-5,10,13,33,23,7
679.0,4,3,0,-3,2,1,-5,10,13,32,22,7
680.0,4,3,0,-3,2,1,-5,9,12,32,22,7
681.0,3,3,0,-3,2,1,-5,9,12,31,22,7
682.0,3,3,0,-3,2,1,-5,9,11,30,21,7
683.0,3,3,0,-3,2,1,-5,9,11,30,21,7
684.0,3,2,0,-3,2,1,-5,8,11,29,21,6
685.0,3,2,0,-3,2,1,-5,8,10,28,20,6
686.0,3,2,0,-3,2,1,-5,8,10,28,20,6
687.0,3,2,0,-3,2,1,-5,8,9,27,19,6
688.0,2,2,0,-3,2,1,-4,7,9,26,19,6
689.0,2,2,0,-3,1,1,-4,7,8,25,19,6
690.0,2,2,0,-3,1,1,-4,7,8,25,18,6
691.0,2,2,0,-3,1,1,-4,7,8,24,18,6
692.0,2,2,0,-2,1,1,-4,6,7,23,17,5
693.0,2,1,0,-2,1,1,-4,6,7,23,17,5
694.0,2,1,0,-2,1,1,-4,6,6,22,16,5
695.0,1,1,0,-2,1,1,-3,6,6,21,16,5
696.0,1,1,0,-2,1,0,-3,5,6,21,15,5
697.0,1,1,0,-2,1,0,-3,5,5,20,15,5
698.0,1,0,0,-2,1,0,-3,5,5,19,14,4
699.0,1,0,0,-2,1,0,-3,4,5,18,14,4
700.0,1,0,0,-2,1,0,-3,4,4,18,13,4
701.0,1,0,0,-1,1,0,-3,4,4,17,13,4
702.0,1,0,0,-1,1,0,-3,4,4,16,12,4
703.0,1,0,0,-1,1,0,-3,4,4,16,12,3
704.0,1,0,0,-1,1,0,-2,3,4,15,11,3
705.0,1,0,0,-1,1,0,-2,3,3,14,11,3
706.0,1,0,0,-1,1,0,-2,3,3,14,10,3
707.0,1,0,0,-1,1,0,-2,3,3,13,10,3
708.0,1,0,0,-1,1,0,-2,3,3,13,10,3
709.0,1,0,0,-1,1,0,-2,3,3,12,9,2
710.0,1,0,0,-1,1,0,-2,2,3,11,9,2
711.0,1,0,0,-1,1,0,-2,2,3,11,8,2
712.0,1,0,0,-1,1,0,-1,2,3,10,8,2
713.0,1,0,0,-1,1,0,-1,2,3,10,7,2
714.0,1,0,0,-1,1,0,-1,2,2,9,7,2
715.0,1,0,0,-1,1,0,-1,2,2,9,7,1
716.0,1,0,0,-1,1,0,-1,2,2,8,6,1
717.0,1,0,0,-1,1,0,-1,2,2,8,6,1
718.0,1,0,0,-1,1,0,-1,2,2,7,5,1
719.0,0,0,0,-1,0,0,-1,2,2,7,5,1
720.0,0,0,0,0,0,0,-1,2,2,6,5,1
721.0,0,0,0,0,0,0,-1,2,2,6,4,0
722.0,0,0,0,0,0,0,-1,2,2,6,4,0
723.0,0,0,0,0,0,0,-1,2,2,5,4,0
724.0,0,0,0,0,0,0,-1,2,2,5,3,0
725.0,0,0,0,0,0,0,-1,1,2,5,3,0
726.0,0,0,0,0,0,0,0,1,2,5,3,0
727.0,0,0,0,0,0,0,0,1,2,4,2,0
728.0,0,0,0,0,0,0,0,1,2,4,2,0
729.0,0,0,0,0,0,0,0,1,2,4,2,0
730.0,0,0,0,0,0,0,0,1,2,4,2,0
731.0,0,0,0,0,0,0,0,1,2,3,2,0
732.0,0,0,0,0,0,0,0,1,2,3,2,0
733.0,0,0,0,0,0,0,0,1,2,3,2,0
734.0,0,0,0,0,0,0,0,1,2,2,2,0
735.0,0,0,0,0,0,0,0,1,1,2,1,0
736.0,0,0,0,0,0,0,0,1,1,2,1,0
737.0,0,0,0,0,0,0,0,1,1,2,1,0
738.0,0,0,0,0,0,0,0,1,1,1,1,0
739.0,0,0,0,0,0,0,0,1,1,1,1,0
740.0,0,0,0,0,0,0,0,1,1,1,0,0
741.0,0,0,0,0,0,0,0,1,1,1,0,0
742.0,0,0,0,0,0,0,0,1,1,1,0,0
743.0,0,0,0,0,0,0,0,1,1,0,0,0
744.0,0,0,0,0,0,0,0,1,1,0,0,0
745.0,0,0,0,0,0,0,0,1,1,0,0,0
746.0,0,-1,0,0,0,0,0,0,1,0,-1,0
747.0,0,-1,0,0,0,0,0,0,1,0,-1,-1
748.0,0,-1,0,0,0,0,0,0,1,0,-1,-1
749.0,0,-1,0,0,0,0,0,0,1,-1,-1,-1
750.0,0,-1,0,0,0,0,0,0,1,-1,-1,-1
751.0,0,-1,0,0,0,0,0,0,1,-1,-1,-1
752.0,0,-1,0,0,0,0,0,0,0,-1,-1,-1
753.0,0,-1,0,0,0,0,0,0,0,-1,-2,-1
754.0,0,0,0,0,0,0,0,0,0,-1,-2,-1
755.0,0,0,0,0,0,0,0,0,0,-1,-2,-1
756.0,0,0,0,0,0,0,0,0,0,-1,-2,-1
757.0,0,0,0,0,0,0,0,0,0,-2,-2,-1
758.0,-1,0,0,0,0,0,0,0,0,-2,-2,-1
759.0,-1,0,0,0,0,0,0,0,0,-2,-2,-1
760.0,-1,0,0,0,0,0,0,0,0,-2,-2,-1
761.0,-1,0,0,0,0,0,0,0,0,-2,-2,-1
762.0,-1,0,0,0,0,0,0,0,0,-2,-2,-1
763.0,-1,0,0,0,0,0,0,0,0,-2,-2,-1
764.0,-1,0,0,0,0,0,0,0,0,-2,-2,-1
765.0,-1,0,0,0,0,0,1,0,0,-2,-2,-1
766.0,-1,0,0,0,0,0,1,0,0,-2,-2,-1
767.0,-1,0,0,0,0,0,1,0,0,-2,-2,-1
768.0,-1,0,0,0,0,0,1,0,0,-2,-2,-1
769.0,-1,0,0,0,0,0,1,0,0,-2,-2,-1
770.0,-1,0,0,0,0,0,1,0,0,-2,-2,-1
771.0,-1,0,0,0,0,0,1,0,0,-2,-2,-1
772.0,-1,0,0,0,0,0,1,0,0,-2,-2,-1
773.0,-1,-1,0,1,0,0,1,0,0,-2,-2,-1
774.0,-1,-1,0,1,0,0,1,0,0,-2,-2,-1
775.0,-1,-1,0,1,0,0,1,0,0,-2,-2,-1
776.0,-1,-1,0,1,0,0,1,0,0,-3,-2,-1
777.0,-1,-1,0,1,0,0,1,0,0,-3,-3,-1
778.0,-1,-1,0,1,0,0,1,0,0,-3,-3,-1
779.0,-1,-1,0,1,0,0,1,0,0,-3,-3,-1
780.0,-1,-1,0,1,0,0,1,0,0,-3,-3,-1
781.0,-1,-1,0,1,0,0,1,0,0,-3,-3,-2
782.0,-1,-1,0,1,0,0,1,0,0,-3,-3,-2
783.0,-1,-1,0,1,0,0,1,0,0,-3,-3,-2
784.0,-1,-1,0,1,0,0,1,0,0,-3,-3,-2
785.0,-1,-1,0,1,0,0,1,0,0,-3,-3,-2
786.0,-1,-1,0,1,0,0,1,0,0,-3,-3,-2
787.0,-1,-1,0,1,0,0,1,0,0,-3,-3,-2
788.0,-1,-1,0,1,0,0,1,0,0,-3,-3,-2
789.0,-1,-1,0,1,0,0,1,0,0,-3,-3,-1
790.0,-1,-1,0,1,0,0,1,0,0,-3,-3,-1
791.0,-1,-1,0,1,0,0,1,0,0,-3,-3,-1
792.0,-1,-1,0,1,0,0,2,0,0,-3,-3,-1
793.0,-1,-1,0,1,0,0,2,0,0,-3,-3,-1
794.0,-1,-1,0,1,0,0,2,0,0,-3,-3,-1
795.0,-1,-1,0,1,0,0,2,0,0,-3,-3,-1
796.0,-1,-1,0,1,0,0,2,0,0,-3,-3,-1
797.0,-1,-1,0,1,0,0,2,0,0,-3,-3,-1
798.0,-1,-1,0,1,0,0,2,0,0,-3,-3,-1
799.0,-1,-1,0,1,0,0,1,0,0,-3,-3,-1
800.0,-1,-1,0,1,0,0,1,0,0,-3,-3,-1
801.0,-1,-1,0,1,0,0,1,0,-1,-3,-3,-1
802.0,-1,-1,0,1,0,0,1,0,-1,-3,-3,-1
803.0,-1,-1,0,1,0,0,1,0,-1,-3,-3,-2
804.0,-1,-1,0,1,0,0,1,0,-1,-3,-3,-2
805.0,-1,-1,0,1,0,0,1,0,-1,-3,-3,-2
806.0,-1,-1,0,1,0,0,1,0,-1,-3,-3,-2
807.0,-1,-1,0,1,0,0,1,0,-1,-3,-3,-2
808.0,-1,-1,0,1,0,0,1,0,0,-3,-3,-2
809.0,-1,-1,0,1,0,0,1,0,0,-3,-3,-2
810.0,-1,-1,0,1,0,0,1,0,0,-3,-3,-2
811.0,-1,-1,0,1,0,0,1,0,0,-3,-3,-2
812.0,-1,-1,0,1,0,0,1,0,0,-3,-3,-2
813.0,-1,-1,0,1,0,0,1,0,0,-3,-3,-2
814.0,-1,-1,0,1,0,0,1,0,0,-3,-3,-2
815.0,-1,-1,0,1,0,0,1,0,0,-3,-3,-2
816.0,-1,-1,0,1,0,0,1,0,0,-3,-3,-2
817.0,-1,-1,0,1,0,0,1,0,0,-3,-2,-1
818.0,-1,-1,0,1,0,0,1,0,0,-3,-2,-1
819.0,-1,-1,0,1,0,0,1,0,0,-3,-2,-1
820.0,-1,-1,0,1,0,0,1,0,-1,-3,-2,-1
821.0,-1,-1,0,1,0,0,1,0,-1,-3,-2,-1
822.0,-1,-1,0,1,0,0,1,0,-1,-3,-2,-1
823.0,-1,-1,0,1,0,0,1,0,-1,-3,-2,-1
824.0,-1,-1,0,1,0,0,1,0,-1,-3,-2,-1
825.0,-1,-1,0,1,0,0,1,0,-1,-3,-2,-1
826.0,-1,-1,0,1,0,0,1,0,0,-3,-2,-1
827.0,-1,-1,0,1,0,0,1,0,0,-3,-2,-1
828.0,-1,-1,0,1,0,0,1,0,0,-3,-2,-1
829.0,-1,-1,0,1,0,0,1,0,0,-3,-2,-1
830.0,-1,-1,0,1,0,0,1,0,0,-3,-2,-1
831.0,-1,-1,0,1,0,0,1,0,-1,-3,-2,-1
832.0,-1,-1,0,1,0,0,1,0,-1,-3,-2,-1
833.0,-1,-1,0,1,0,0,1,-1,-1,-3,-2,-1
834.0,-1,-1,0,1,0,0,1,-1,-1,-3,-2,-1
835.0,-1,-1,0,1,0,0,1,-1,-1,-3,-2,-1
836.0,-1,-1,0,1,0,0,1,-1,-1,-3,-2,-1
837.0,-1,-1,0,1,0,0,1,-1,-1,-3,-2,-1
838.0,-1,-1,0,1,0,0,1,-1,-1,-3,-2,-1
839.0,0,-1,0,1,0,0,1,-1,-1,-3,-2,-1
840.0,0,-1,0,1,0,0,1,-1,-1,-3,-2,-1
841.0,0,-1,0,1,0,0,1,-1,-1,-3,-2,-1
842.0,0,-1,0,1,0,0,1,-1,0,-3,-2,-1
843.0,0,-1,0,1,0,0,0,-1,0,-3,-2,-1
844.0,0,-1,0,1,0,0,0,-1,0,-3,-2,-1
845.0,0,-1,0,1,0,0,0,-1,0,-3,-2,-1
846.0,0,-1,0,1,0,0,0,-1,0,-3,-2,-1
847.0,0,-1,0,1,0,0,0,-1,0,-3,-2,-1
848.0,0,-1,0,1,0,0,0,-1,0,-3,-2,-1
849.0,0,-1,0,1,0,0,0,-1,0,-3,-2,0
850.0,0,-1,0,1,0,0,0,-1,0,-3,-2,0
851.0,0,-1,0,1,0,0,0,-1,0,-3,-2,0
852.0,0,-1,0,1,0,0,0,-1,0,-3,-2,0
853.0,0,-1,0,0,0,0,0,-1,0,-3,-2,0
854.0,0,-1,0,1,0,0,0,0,0,-3,-2,0
855.0,0,-1,0,1,0,0,0,0,0,-3,-2,0
856.0,0,-1,0,1,0,0,0,0,0,-3,-2,0
857.0,-1,-1,0,1,0,0,0,0,0,-2,-2,0
858.0,-1,-1,0,1,0,0,0,0,0,-2,-2,0
859.0,0,-1,0,1,0,0,0,0,0,-2,-2,0
860.0,0,-1,0,1,0,0,0,0,0,-2,-2,0
861.0,0,-1,0,1,0,0,0,0,0,-2,-2,0
862.0,0,-1,0,0,0,0,0,0,0,-2,-1,0
863.0,0,-1,0,0,0,0,0,0,0,-2,-1,0
864.0,0,-1,0,0,0,0,0,0,0,-2,-1,0
865.0,0,-1,0,0,0,0,0,0,0,-2,-1,0
866.0,0,-1,0,0,0,0,0,0,0,-2,-1,0
867.0,0,-1,0,0,0,0,0,0,0,-2,-1,0
868.0,0,-1,0,0,0,0,0,0,0,-2,-1,0
869.0,0,-1,0,0,0,0,0,0,0,-2,-1,0
870.0,0,-1,0,0,0,0,0,0,0,-2,-1,0
871.0,0,-1,0,0,0,0,0,0,0,-2,-1,0
872.0,0,-1,0,0,0,0,0,0,0,-2,-1,0
873.0,0,-1,0,0,0,0,0,0,0,-2,-1,0
874.0,0,-1,0,0,0,0,0,0,0,-2,-1,0
875.0,0,-1,0,0,0,0,0,0,0,-2,-1,0
876.0,0,-1,0,0,0,0,0,0,0,-2,-1,0
877.0,0,-1,0,0,0,0,0,0,0,-2,-1,0
878.0,0,-1,0,0,0,0,0,0,0,-2,-1,0
879.0,0,0,0,0,0,0,0,0,0,-2,-1,0
880.0,0,0,0,0,0,0,0,0,0,-2,-1,0
881.0,0,0,0,0,0,0,0,0,0,-2,-1,0
882.0,0,0,0,0,0,0,0,0,0,-2,-1,0
883.0,0,0,0,0,0,0,0,0,0,-1,-1,0
884.0,0,0,0,0,0,0,0,0,0,-1,-1,0
885.0,0,0,0,0,0,0,0,0,0,-1,-1,0
886.0,0,0,0,0,0,0,0,0,1,-1,-1,0
887.0,0,0,0,0,0,0,0,0,1,-1,-1,0
888.0,0,0,0,0,0,0,0,0,1,-1,-1,0
889.0,0,0,0,0,0,0,0,0,1,-1,-1,0
890.0,0,0,0,0,0,0,0,0,1,-1,-1,0
891.0,0,0,0,0,0,0,0,0,1,-1,-1,0
892.0,0,0,0,0,0,0,0,0,1,-1,-1,0
893.0,0,0,0,0,0,0,0,0,1,-1,-1,0
894.0,0,0,0,0,0,0,0,0,1,-1,-1,0
895.0,0,0,0,0,0,0,0,0,1,-1,-1,0
896.0,0,0,0,0,0,0,0,0,1,-1,-1,0
897.0,0,0,0,0,0,0,0,0,1,-1,-1,0
898.0,0,0,0,0,0,0,0,0,1,-1,-1,0
899.0,0,0,0,0,0,0,0,0,1,-1,-1,0
900.0,0,0,0,0,0,0,0,0,1,-1,-1,0
901.0,0,0,0,0,0,0,0,0,1,-1,-1,0
902.0,0,0,0,0,0,0,0,0,1,-1,-1,0
903.0,0,0,0,0,0,0,0,0,1,-1,-1,0
904.0,0,0,0,0,0,0,0,0,1,-1,-1,0
905.0,0,0,0,0,0,0,0,0,1,-1,-1,0
906.0,0,0,0,0,0,0,0,1,1,-1,-1,0
907.0,0,0,0,0,0,0,0,1,1,-1,-1,0
908.0,0,0,0,0,0,0,0,1,1,-1,-1,0
909.0,0,0,0,0,0,0,0,1,1,-1,-1,0
910.0,0,0,0,0,0,0,0,1,1,-1,-1,0
911.0,0,0,0,0,0,0,0,1,1,-1,-1,0
912.0,0,0,0,0,0,0,0,1,1,-1,-1,0
913.0,0,0,0,0,0,0,0,1,1,-1,-1,0
914.0,0,0,0,0,0,0,0,1,1,-1,-1,0
915.0,0,0,0,0,0,0,0,1,1,-1,-1,0
916.0,0,0,0,0,0,0,0,1,1,-1,-1,0
917.0,0,0,0,0,0,0,0,1,1,-1,-1,0
918.0,0,0,0,0,0,0,0,1,1,-1,-1,0
919.0,0,0,0,0,0,0,0,1,1,-1,-1,0
920.0,0,0,0,0,0,0,0,1,1,-1,-1,0
921.0,0,0,0,0,0,0,0,1,1,-1,-1,0
922.0,0,0,0,0,0,0,0,1,1,-1,-1,0
923.0,0,0,0,0,0,0,0,1,1,-1,-1,0
924.0,0,0,0,0,0,0,0,1,1,-1,-1,0
925.0,0,0,0,0,0,0,0,1,1,-1,-1,0
926.0,0,0,0,0,0,0,0,1,1,-1,-1,0
927.0,0,0,0,0,0,0,0,1,1,-1,-1,0
928.0,0,0,0,0,0,0,0,1,1,-1,-1,0
929.0,0,0,0,0,0,0,0,1,1,-1,-1,0
930.0,0,0,0,0,0,0,0,1,1,-1,-1,0
931.0,0,0,0,0,0,0,0,1,1,-1,-1,0
932.0,0,0,0,0,0,0,0,1,1,-1,-1,0
933.0,0,0,0,0,0,0,0,1,1,-1,-1,0
934.0,0,0,0,0,0,0,0,1,1,-1,-1,0
935.0,0,0,0,0,0,0,0,1,1,-1,-1,0
936.0,0,0,0,0,0,0,0,1,1,-1,-1,0
937.0,0,0,0,0,0,0,0,1,1,-1,-1,0
938.0,0,0,0,0,0,0,0,1,1,-1,-1,0
939.0,0,0,0,0,0,0,0,1,1,-1,-1,0
940.0,0,0,0,0,0,0,0,1,1,-1,-1,0
941.0,0,0,0,0,0,0,0,1,1,-1,-1,0
942.0,0,0,0,0,0,0,0,1,1,-1,-1,0
943.0,0,0,0,0,0,0,0,1,1,0,-1,0
944.0,0,0,0,0,0,0,0,1,1,0,-1,0
945.0,0,0,0,0,0,0,0,1,1,0,-1,0
946.0,0,0,0,0,0,0,0,1,1,0,-1,0
947.0,0,0,0,0,0,0,0,1,1,0,-1,0
948.0,0,0,0,0,0,0,0,1,1,0,-1,0
949.0,0,0,0,0,0,0,0,1,1,0,-1,0
950.0,0,0,0,0,0,0,0,1,1,0,-1,0
951.0,0,0,0,0,0,0,0,1,1,0,-1,0
952.0,0,0,0,0,0,0,0,1,1,0,-1,0
953.0,0,0,0,0,0,0,0,1,1,0,-1,0
954.0,0,0,0,0,0,0,0,1,1,0,-1,0
955.0,0,0,0,0,0,0,0,1,1,0,-1,0
956.0,0,0,0,0,0,0,0,1,1,0,-1,0
957.0,0,0,0,0,0,0,0,1,1,0,-1,0
958.0,0,0,0,0,0,0,0,1,1,0,-1,0
959.0,0,0,0,0,0,0,0,1,1,0,-1,0
960.0,0,0,0,0,0,0,0,1,1,0,-1,0
961.0,0,0,0,0,0,0,0,1,1,0,-1,0
962.0,0,0,0,0,0,0,0,1,1,0,-1,0
963.0,0,0,0,0,0,0,0,1,1,0,-1,0
964.0,0,0,0,0,0,0,0,1,1,0,-1,0
965.0,0,0,0,0,0,0,0,1,1,0,-1,0
966.0,-1,0,0,0,0,0,0,1,1,0,-1,0
967.0,-1,0,0,0,0,0,0,1,1,0,-1,0
968.0,-1,0,0,0,0,0,0,1,1,0,-1,0
969.0,-1,0,0,0,0,0,0,1,1,0,-1,0
970.0,-1,0,0,0,0,0,0,1,1,0,-1,0
971.0,-1,0,0,0,0,0,0,1,1,0,-1,0
972.0,-1,0,0,0,0,0,0,1,1,0,-1,0
973.0,-1,0,0,0,0,0,0,1,1,0,-1,0
974.0,-1,0,0,0,0,0,0,1,1,0,-1,0
975.0,-1,0,0,0,0,0,0,1,1,0,-1,0
976.0,0,0,0,0,0,0,0,1,1,0,-1,0
977.0,0,0,0,0,0,0,0,1,1,0,-1,0
978.0,0,0,0,0,0,0,0,1,1,0,-1,0
979.0,0,0,0,0,0,0,0,1,1,0,-1,0
980.0,0,0,0,0,0,0,0,1,1,0,-1,0
981.0,0,0,0,0,0,0,0,1,1,0,-1,0
982.0,0,0,0,0,0,0,0,1,0,0,-1,0
983.0,0,0,0,0,0,0,0,1,0,0,-1,0
984.0,0,0,0,0,0,0,0,1,0,0,-1,0
985.0,0,0,0,0,0,0,0,1,0,0,-1,0
986.0,0,0,0,0,0,0,0,1,0,0,-1,0
987.0,0,0,0,0,0,0,0,1,0,0,-1,0
988.0,0,0,0,0,0,0,0,1,1,0,-1,0
989.0,0,0,0,0,0,0,0,1,1,0,-1,0
990.0,0,0,0,0,0,0,0,1,1,0,-1,0
991.0,-1,0,0,0,0,0,0,1,1,0,-1,0
992.0,-1,0,0,0,0,0,0,1,1,0,-1,0
993.0,-1,0,0,0,0,0,0,0,0,0,-1,0
994.0,-1,-1,0,0,0,0,0,0,0,0,-1,0
995.0,-1,-1,0,0,0,0,0,0,0,0,-1,0
996.0,-1,-1,0,0,0,0,0,0,0,0,-1,0
997.0,-1,-1,0,0,0,0,0,0,0,0,-1,0
998.0,-1,-1,0,0,0,0,0,0,0,0,-1,0
999.0,-1,-1,0,1,0,0,0,0,0,0,-1,-1
1000.0,-1,-1,0,1,0,0,0,0,0,0,-1,-1
1001.0,-1,-1,0,1,0,0,0,0,0,0,-1,-1
1002.0,-1,-1,0,1,0,0,0,0,0,0,-1,-1
1003.0,-1,-1,0,1,0,0,0,0,0,0,-1,-1
1004.0,-1,-1,0,1,0,0,0,0,0,0,-1,0
1005.0,-1,-1,0,1,0,0,0,0,0,0,-1,0
1006.0,-1,-1,0,1,0,0,0,0,0,0,-1,0
1007.0,-1,-1,0,1,0,0,0,0,0,0,-1,0
1008.0,-1,-1,0,1,0,0,0,0,0,0,-1,0
1009.0,-1,-1,0,1,0,0,0,0,0,0,-1,0
1010.0,-1,-1,0,1,0,0,0,0,0,0,-1,0
1011.0,-1,-1,0,1,0,0,0,0,0,0,-1,0
1012.0,-1,-1,0,1,0,0,0,0,0,0,-1,0
1013.0,-1,-1,0,1,0,0,0,0,0,0,-1,0
1014.0,-1,-1,0,1,0,0,0,0,0,0,-1,0
1015.0,-1,-1,0,1,0,0,0,0,0,0,-1,0
1016.0,-1,-1,0,1,0,0,0,0,0,0,-1,0
1017.0,-1,-1,0,1,0,0,0,0,0,0,-1,0
1018.0,-1,-1,0,1,0,0,0,0,0,0,-1,0
1019.0,-1,-1,0,1,0,0,0,0,0,0,-1,0
1020.0,-1,-1,0,1,0,0,0,0,0,0,-1,0
1021.0,-1,-1,0,1,0,0,0,0,0,0,-1,0
1022.0,-1,-1,0,1,0,0,0,0,0,0,-1,0
1023.0,-1,-1,0,1,0,0,0,0,0,0,-1,0
1024.0,-1,-1,0,1,0,0,0,0,0,0,-1,0
1025.0,-1,-1,0,1,0,0,0,0,0,0,-1,0
1026.0,-1,-1,0,1,0,0,0,0,0,0,-1,0
1027.0,-1,-1,0,1,0,0,0,0,0,0,-1,0
1028.0,-1,-1,0,1,0,0,0,0,0,0,-1,0
1029.0,-1,-1,0,1,0,0,0,0,0,0,-1,0
1030.0,-1,-1,0,1,0,0,0,0,0,0,-1,0
1031.0,-1,-1,0,1,0,0,0,0,0,0,-1,0
1032.0,-1,-1,0,1,0,0,0,1,0,0,-1,0
1033.0,-1,0,0,1,0,0,0,1,0,1,-1,0
1034.0,-1,0,0,1,0,0,0,1,0,1,-1,0
1035.0,-1,-1,0,1,0,0,0,1,0,1,-1,0
1036.0,-1,-1,0,1,0,0,0,1,0,1,-1,0
1037.0,-1,-1,0,1,0,0,0,1,0,1,-1,0
1038.0,-2,-1,0,1,0,0,0,1,0,1,-1,0
1039.0,-2,-1,0,1,0,0,0,1,0,1,-1,0
1040.0,-2,-1,0,1,-1,0,0,1,0,1,-1,0
1041.0,-2,-1,0,1,-1,0,0,1,0,1,-1,0
1042.0,-2,-1,0,1,-1,0,0,1,0,1,-1,0
1043.0,-2,-1,0,1,-1,0,0,1,0,1,-1,0
1044.0,-2,-1,0,1,-1,0,0,1,0,1,-1,0
1045.0,-2,-1,0,1,-1,0,0,1,0,1,-1,0
1046.0,-2,-1,0,1,-1,0,0,1,0,1,-1,0
1047.0,-2,-1,0,1,-1,0,0,1,0,1,-1,0
1048.0,-2,-1,0,1,-1,0,0,1,0,1,-1,0
1049.0,-2,-1,0,1,-1,0,0,1,0,1,-1,0
1050.0,-1,-1,0,1,-1,0,0,1,0,1,-1,0
1051.0,-1,-1,0,1,-1,0,0,1,0,1,-1,0
1052.0,-1,-1,0,1,-1,0,0,1,0,1,-1,0
1053.0,-1,-1,0,1,-1,0,0,1,0,1,-1,0
1054.0,-1,-1,0,1,-1,0,0,1,0,1,-1,0
1055.0,-1,-1,0,1,-1,0,0,1,0,1,-1,0
1056.0,-1,-1,0,1,-1,0,0,1,0,1,-1,0
1057.0,-1,-1,0,1,-1,0,0,1,0,1,-1,0
1058.0,-1,-1,0,1,-1,0,0,1,0,1,-1,0
1059.0,-1,-1,0,1,-1,0,0,1,0,1,-1,0
1060.0,-1,-1,0,1,0,0,0,1,0,1,-1,0
1061.0,-1,-1,0,1,0,0,0,1,0,1,-1,0
1062.0,-1,-1,0,1,0,0,0,1,0,1,-1,0
1063.0,-1,-1,0,1,0,0,0,1,0,1,-1,0
1064.0,-1,-1,0,1,0,0,0,0,0,1,-1,0
1065.0,-1,-1,0,1,0,0,0,0,0,1,-1,-1
1066.0,-1,-1,0,1,0,0,0,0,0,1,-1,-1
1067.0,-1,-1,0,1,0,0,0,0,0,1,-1,-1
1068.0,-1,-1,0,1,0,0,0,0,0,1,-1,-1
1069.0,-1,-1,0,1,0,0,0,0,0,1,-1,0
1070.0,-1,-1,0,1,0,0,0,1,0,1,-1,0
1071.0,-1,0,0,1,0,0,0,1,0,1,-1,0
1072.0,-1,0,0,1,0,0,0,1,0,1,-1,0
1073.0,-1,0,0,1,0,0,0,1,0,1,-1,0
1074.0,-1,0,0,1,0,0,0,1,0,1,-1,0
1075.0,-1,0,0,1,-1,0,0,1,0,1,-1,0
1076.0,-1,0,0,1,-1,0,0,1,0,1,0,0
1077.0,-1,0,0,1,-1,0,0,1,0,1,0,0
1078.0,-1,0,0,1,-1,0,0,1,0,1,0,0
1079.0,-1,0,0,1,-1,0,0,1,0,1,0,0
1080.0,-1,0,0,1,-1,0,0,1,0,1,0,0
1081.0,-1,0,0,1,-1,0,0,1,0,1,0,0
1082.0,-1,0,0,1,-1,0,0,1,0,1,0,0
1083.0,-1,0,0,1,0,0,0,1,0,1,0,0
1084.0,-1,0,0,1,0,0,0,1,0,1,0,0
1085.0,0,0,0,1,0,0,0,1,0,1,0,0
1086.0,0,0,0,1,0,0,0,1,0,1,0,0
1087.0,0,0,0,1,0,0,0,1,0,1,0,0
1088.0,-1,0,0,1,0,0,0,1,0,1,0,0
1089.0,-1,0,0,0,0,0,0,1,0,1,0,0
1090.0,-1,0,0,0,0,0,0,1,0,1,0,0
1091.0,0,0,0,0,0,0,0,1,0,1,0,0
1092.0,0,0,0,0,0,0,0,1,0,1,0,0
1093.0,0,0,0,0,0,0,0,1,0,1,0,0
1094.0,0,0,0,0,0,0,0,1,0,1,0,0
1095.0,0,0,0,0,0,0,0,1,0,1,0,0
1096.0,0,0,0,0,0,0,0,1,0,1,0,0
1097.0,0,0,0,0,0,0,0,1,0,1,0,0
1098.0,0,0,0,0,0,0,0,1,0,1,0,0
1099.0,0,0,0,0,0,0,0,1,0,1,0,0
1100.0,0,0,0,0,0,0,0,1,0,1,0,0
1101.0,0,-1,0,0,0,0,0,1,-2,1,0,-1
1102.0,0,-2,0,0,0,-1,0,-1,-9,0,-1,-3
1103.0,1,-4,-1,0,0,-1,0,-2,-9,-1,-2,-5
1104.0,1,-3,-1,0,0,-1,0,-1,-6,-1,-2,-4
1105.0,0,-2,-1,0,0,-1,0,-1,-3,0,-2,-3
1106.0,0,-1,-1,0,0,-1,0,0,0,0,-1,-2
1107.0,0,0,0,0,0,0,0,1,2,0,-1,0
1108.0,0,0,0,0,0,0,0,1,2,1,-1,0
1109.0,0,0,0,0,0,0,0,1,3,1,0,0
1110.0,0,1,0,0,0,0,0,2,3,1,0,0
1111.0,0,1,0,0,0,0,0,2,2,1,0,0
1112.0,0,1,0,0,0,0,0,2,2,2,0,0
1113.0,0,1,0,0,0,0,0,2,2,2,0,0
1114.0,0,1,0,0,0,0,0,1,2,2,0,0
1115.0,0,1,0,0,0,0,0,1,2,2,0,0
1116.0,0,1,0,0,0,0,0,1,1,2,1,0
1117.0,0,0,0,0,0,0,0,1,1,2,1,0
1118.0,0,0,0,0,0,0,0,1,1,2,1,0
1119.0,0,0,0,0,0,0,0,1,1,2,1,0
1120.0,0,0,0,0,0,0,0,1,0,2,1,0
1121.0,0,0,0,0,0,0,0,1,0,2,1,0
1122.0,0,0,0,0,0,0,0,1,0,2,1,0
1123.0,0,0,0,0,0,0,0,1,0,2,1,0
1124.0,0,0,0,0,0,0,0,1,0,2,1,0
1125.0,0,0,0,0,0,0,0,1,0,2,1,0
1126.0,0,0,0,0,0,0,0,1,0,2,1,0
1127.0,0,0,0,0,0,0,0,1,1,2,1,0
1128.0,0,0,0,0,0,0,0,1,1,2,1,0
1129.0,0,0,0,0,0,0,0,1,1,2,1,0
1130.0,0,0,0,0,0,0,0,1,1,2,1,0
1131.0,0,0,0,0,0,0,0,2,2,2,1,0
1132.0,0,0,0,0,0,0,0,2,2,2,1,0
1133.0,0,0,0,0,0,0,1,2,2,3,1,0
1134.0,0,0,0,0,0,0,1,2,2,3,1,-1
1135.0,0,0,0,0,0,0,1,2,2,3,1,-1
1136.0,0,0,0,0,0,0,1,2,2,3,1,-1
1137.0,0,0,0,0,0,0,1,2,3,3,0,-1
1138.0,0,0,0,0,0,0,1,2,3,3,0,-1
1139.0,0,0,0,0,0,0,1,3,4,3,0,-2
1140.0,0,0,0,0,0,0,1,3,4,3,0,-2
1141.0,0,0,0,0,0,0,2,3,4,3,0,-2
1142.0,0,0,0,0,0,0,2,3,5,3,0,-2
1143.0,0,0,0,0,0,0,2,4,5,4,0,-3
1144.0,0,0,0,0,0,0,2,4,6,4,0,-3
1145.0,0,0,0,0,0,0,2,4,6,4,0,-3
1146.0,0,0,0,0,0,0,2,5,6,4,0,-3
1147.0,0,0,0,0,0,0,2,5,6,5,0,-3
1148.0,0,-1,0,0,0,0,2,5,6,5,0,-3
1149.0,0,-1,0,0,0,0,3,5,6,5,0,-3
1150.0,0,-1,0,0,0,0,2,5,6,5,0,-3
1151.0,0,0,0,0,0,0,2,5,6,5,1,-3
1152.0,0,0,0,0,0,0,2,5,6,5,1,-3
1153.0,0,0,0,0,0,0,2,5,6,6,1,-3
1154.0,0,0,0,0,0,0,2,5,5,6,2,-2
1155.0,0,0,0,0,0,0,2,4,5,7,2,-2
1156.0,0,0,0,0,0,0,2,4,5,7,2,-2
1157.0,0,0,0,0,0,0,1,4,5,8,2,-1
1158.0,0,0,0,0,0,0,1,3,4,8,3,-1
1159.0,0,0,0,0,0,0,1,2,4,9,3,0
1160.0,0,0,0,0,0,0,1,2,4,9,4,0
1161.0,0,1,0,0,0,0,0,2,3,10,4,0
1162.0,1,1,0,0,0,0,0,1,2,11,6,1
1163.0,1,2,0,0,0,0,0,1,2,11,6,1
1164.0,1,2,0,0,0,0,0,0,2,11,7,1
1165.0,1,3,0,0,0,0,0,-1,1,12,7,2
1166.0,1,4,0,-1,0,1,-1,-3,0,12,8,3
1167.0,1,4,0,-1,0,1,-2,-4,-1,13,9,4
1168.0,1,5,1,-1,0,1,-2,-4,-1,13,9,4
1169.0,2,5,1,-1,0,1,-2,-6,-2,13,10,5
1170.0,2,6,1,-2,0,2,-3,-7,-4,13,11,6
1171.0,2,6,1,-2,0,2,-3,-8,-6,13,11,7
1172.0,2,7,2,-2,0,2,-4,-10,-7,12,11,7
1173.0,2,7,2,-2,0,3,-4,-11,-8,12,11,8
1174.0,3,8,2,-3,0,3,-5,-12,-11,10,11,9
1175.0,3,8,2,-3,0,3,-5,-13,-13,9,10,9
1176.0,3,8,2,-3,0,3,-6,-15,-17,8,10,10
1177.0,3,8,3,-3,0,4,-7,-17,-20,5,9,11
1178.0,3,8,3,-3,0,4,-7,-19,-23,4,8,11
1179.0,3,8,3,-3,0,4,-7,-21,-27,1,7,11
1180.0,3,8,3,-4,0,4,-8,-22,-30,-1,6,12
1181.0,2,9,3,-4,0,5,-8,-25,-34,-5,5,13
1182.0,2,9,4,-4,0,5,-9,-27,-37,-8,4,14
1183.0,2,9,4,-4,-1,5,-9,-29,-40,-11,3,14
1184.0,2,9,4,-4,-1,5,-9,-31,-43,-14,2,15
1185.0,2,9,4,-4,-1,6,-10,-33,-46,-17,1,17
1186.0,2,9,5,-4,-1,6,-10,-35,-48,-21,1,17
1187.0,1,9,5,-4,-1,6,-10,-36,-49,-24,0,18
1188.0,1,10,5,-4,-1,6,-10,-38,-51,-27,-2,19
1189.0,1,10,6,-5,-2,7,-11,-39,-52,-31,-3,21
1190.0,1,10,6,-5,-2,7,-11,-41,-54,-33,-4,22
1191.0,1,11,6,-5,-2,7,-11,-41,-54,-36,-5,22
1192.0,1,11,6,-5,-2,7,-12,-43,-55,-39,-6,23
1193.0,0,11,7,-5,-2,8,-13,-44,-56,-42,-7,25
1194.0,0,11,7,-5,-3,8,-13,-44,-56,-44,-7,25
1195.0,0,12,7,-5,-3,8,-13,-45,-56,-46,-8,26
1196.0,0,12,8,-5,-3,8,-13,-45,-56,-48,-9,27
1197.0,0,12,8,-5,-3,9,-14,-45,-55,-51,-11,28
1198.0,0,12,8,-5,-3,9,-14,-45,-55,-53,-11,28
1199.0,0,12,8,-5,-3,9,-14,-45,-55,-54,-12,28
1200.0,1,12,8,-5,-3,9,-14,-45,-54,-56,-13,29
1201.0,1,12,9,-5,-3,9,-15,-44,-53,-58,-14,29
1202.0,1,12,9,-6,-3,9,-15,-44,-52,-59,-15,29
1203.0,1,12,9,-6,-4,10,-15,-44,-52,-60,-15,30
1204.0,1,12,9,-6,-4,10,-15,-43,-51,-61,-17,30
1205.0,1,13,9,-6,-4,10,-15,-42,-50,-63,-18,30
1206.0,1,13,9,-6,-4,10,-15,-42,-50,-63,-18,30
1207.0,1,13,9,-6,-4,10,-15,-41,-49,-64,-19,29
1208.0,1,13,10,-6,-4,10,-14,-40,-48,-65,-20,29
1209.0,1,13,10,-6,-4,10,-14,-40,-47,-66,-21,28
1210.0,1,13,10,-6,-4,10,-14,-39,-47,-66,-22,28
1211.0,1,13,10,-6,-4,11,-13,-39,-46,-67,-23,27
1212.0,1,13,10,-6,-4,11,-13,-38,-45,-68,-24,26
1213.0,1,12,10,-6,-4,11,-13,-37,-44,-68,-26,25
1214.0,1,12,10,-6,-4,11,-12,-37,-44,-69,-26,24
1215.0,1,12,10,-6,-4,11,-12,-36,-43,-69,-27,23
1216.0,1,11,10,-6,-4,10,-11,-34,-41,-69,-29,21
1217.0,1,11,10,-6,-4,10,-10,-33,-39,-69,-30,20
1218.0,1,10,10,-6,-4,10,-10,-32,-38,-69,-30,18
1219.0,1,10,9,-6,-4,10,-9,-31,-37,-69,-31,17
1220.0,0,9,9,-6,-4,10,-8,-30,-34,-68,-32,16
1221.0,0,9,9,-6,-4,10,-7,-28,-32,-68,-33,14
1222.0,0,9,9,-5,-4,10,-7,-27,-31,-68,-33,13
1223.0,0,9,9,-5,-4,10,-6,-26,-28,-67,-34,12
1224.0,0,8,9,-5,-4,9,-4,-24,-25,-66,-34,10
1225.0,0,8,9,-5,-4,9,-4,-23,-24,-65,-35,9
1226.0,0,8,9,-5,-4,9,-3,-21,-21,-64,-35,7
1227.0,0,7,8,-5,-4,9,-1,-19,-17,-63,-35,5
1228.0,0,6,8,-4,-4,8,0,-18,-14,-62,-36,4
1229.0,0,6,8,-4,-4,8,0,-16,-12,-60,-36,2
1230.0,-1,6,8,-4,-4,8,0,-15,-10,-59,-36,1
1231.0,-1,5,8,-4,-4,8,2,-13,-7,-57,-36,0
1232.0,-1,4,8,-3,-4,7,3,-12,-5,-56,-36,-1
1233.0,-2,4,7,-3,-4,7,4,-11,-4,-55,-36,-3
1234.0,-2,3,7,-3,-4,7,5,-9,-2,-53,-36,-4
1235.0,-3,2,7,-2,-4,6,6,-8,-1,-52,-35,-6
1236.0,-3,1,7,-2,-4,6,7,-7,1,-50,-35,-7
1237.0,-3,1,6,-2,-4,6,8,-5,2,-48,-35,-8
1238.0,-3,0,6,-1,-4,6,8,-5,2,-48,-35,-9
1239.0,-4,0,6,-1,-4,5,9,-3,2,-45,-35,-10
1240.0,-4,0,6,-1,-4,5,10,-2,2,-44,-34,-11
1241.0,-4,0,6,0,-4,5,10,-2,1,-43,-34,-12
1242.0,-4,-1,5,0,-4,4,11,-1,1,-42,-34,-13
1243.0,-5,-1,5,0,-4,4,11,0,-1,-40,-33,-14
1244.0,-5,-2,5,0,-4,3,12,0,-1,-39,-33,-15
1245.0,-5,-2,5,0,-4,3,12,1,-2,-38,-33,-15
1246.0,-5,-2,5,0,-4,3,12,1,-3,-37,-32,-15
1247.0,-6,-3,4,1,-4,2,12,1,-5,-35,-32,-16
1248.0,-6,-3,4,1,-4,2,12,1,-6,-34,-31,-17
1249.0,-6,-3,4,1,-4,2,12,1,-8,-33,-31,-17
1250.0,-6,-4,4,2,-4,2,12,1,-9,-32,-30,-17
1251.0,-6,-4,4,2,-4,1,11,0,-10,-30,-29,-17
1252.0,-6,-4,3,2,-4,1,11,0,-12,-29,-29,-18
1253.0,-6,-4,3,2,-4,1,11,-1,-12,-29,-29,-18
1254.0,-6,-5,3,3,-4,1,10,-2,-14,-27,-28,-18
1255.0,-6,-5,3,3,-4,0,9,-2,-15,-26,-27,-18
1256.0,-6,-5,3,3,-4,0,9,-3,-15,-25,-26,-18
1257.0,-6,-5,2,3,-4,0,8,-3,-16,-24,-26,-18
1258.0,-5,-5,2,3,-3,0,8,-4,-16,-23,-25,-17
1259.0,-5,-5,2,3,-3,0,7,-4,-16,-22,-24,-17
1260.0,-5,-5,2,4,-3,0,7,-4,-16,-21,-23,-17
1261.0,-5,-5,2,4,-3,0,7,-4,-15,-20,-23,-17
1262.0,-5,-5,1,4,-3,0,6,-4,-14,-19,-22,-16
1263.0,-4,-5,1,4,-3,-1,6,-3,-14,-18,-21,-16
1264.0,-4,-5,1,4,-3,-1,6,-3,-13,-17,-21,-16
1265.0,-4,-5,1,4,-2,-1,5,-3,-12,-16,-20,-16
1266.0,-4,-5,0,4,-2,-1,5,-2,-11,-14,-19,-15
1267.0,-3,-5,0,4,-2,-1,4,-1,-9,-13,-18,-15
1268.0,-3,-5,0,4,-2,-1,4,-1,-8,-12,-17,-14
1269.0,-3,-5,0,4,-2,-2,4,-1,-7,-11,-16,-14
1270.0,-3,-5,0,4,-2,-2,4,0,-6,-10,-15,-13
1271.0,-2,-4,0,4,-2,-2,3,1,-5,-9,-14,-13
1272.0,-2,-4,0,4,-1,-2,3,1,-4,-8,-14,-13
1273.0,-2,-4,0,4,-1,-2,3,2,-3,-7,-13,-12
1274.0,-2,-4,0,4,-1,-2,3,2,-1,-5,-12,-12
1275.0,-2,-4,0,3,-1,-2,3,2,0,-4,-11,-11
1276.0,-1,-4,0,3,-1,-2,3,3,1,-3,-10,-11
1277.0,-1,-4,0,3,-1,-2,2,3,1,-2,-9,-10
1278.0,-1,-3,-1,3,0,-2,2,4,2,-1,-8,-10
1279.0,-1,-3,-1,3,0,-2,2,4,2,1,-7,-10
1280.0,-1,-3,-1,3,0,-2,2,5,2,1,-7,-9
1281.0,-1,-3,-1,3,0,-2,2,5,3,3,-6,-9
1282.0,0,-3,-1,3,0,-2,2,6,4,4,-5,-9
1283.0,0,-3,-1,3,0,-2,2,6,5,5,-4,-8
1284.0,0,-3,-1,3,0,-2,2,6,5,5,-4,-8
1285.0,0,-3,-1,2,0,-2,2,7,6,5,-3,-8
1286.0,0,-3,-1,2,0,-2,2,7,6,6,-2,-8
1287.0,0,-2,-1,2,0,-2,2,8,7,7,-2,-7
1288.0,0,-2,-1,2,0,-2,2,8,7,8,-1,-7
1289.0,0,-2,-1,2,0,-2,2,8,7,9,0,-7
1290.0,0,-2,-2,2,0,-2,2,8,7,10,0,-7
1291.0,0,-2,-2,2,0,-2,2,9,8,10,1,-7
1292.0,0,-2,-2,2,0,-2,2,9,8,11,1,-7
1293.0,0,-2,-2,2,0,-2,2,9,8,12,2,-7
1294.0,0,-2,-2,2,0,-2,2,9,8,12,2,-6
1295.0,0,-2,-2,1,0,-2,2,9,8,13,2,-6
1296.0,0,-2,-2,1,0,-2,2,9,8,13,2,-6
1297.0,0,-2,-2,1,0,-2,2,9,8,14,2,-6
1298.0,0,-2,-2,1,0,-2,2,9,8,14,3,-6
1299.0,0,-2,-2,1,0,-2,2,9,8,15,3,-6
1300.0,0,-2,-2,1,0,-2,2,9,8,15,4,-6
1301.0,0,-2,-2,1,0,-2,2,10,9,16,4,-6
1302.0,0,-2,-2,1,1,-2,2,10,9,16,4,-6
1303.0,0,-2,-2,1,1,-2,2,10,9,16,4,-6
1304.0,0,-2,-2,1,1,-2,2,10,9,17,5,-6
1305.0,0,-2,-2,1,1,-2,2,10,9,17,5,-6
1306.0,0,-2,-2,1,1,-2,2,10,9,18,5,-6
1307.0,0,-2,-2,1,1,-2,2,10,10,18,5,-6
1308.0,0,-2,-2,1,1,-2,2,10,10,18,6,-6
1309.0,0,-2,-2,1,1,-2,2,10,10,18,6,-6
1310.0,0,-2,-2,1,1,-2,2,10,10,19,6,-6
1311.0,0,-2,-2,1,1,-2,2,10,10,19,6,-6
1312.0,0,-2,-2,1,1,-2,2,10,10,19,6,-6
1313.0,0,-2,-2,1,1,-2,2,10,10,19,6,-6
1314.0,0,-2,-2,1,1,-2,2,10,10,20,7,-6
1315.0,0,-2,-2,1,1,-2,2,10,10,20,7,-6
1316.0,0,-2,-2,1,1,-2,2,10,10,20,7,-6
1317.0,0,-2,-2,1,1,-2,2,10,10,20,7,-6
1318.0,0,-2,-2,1,1,-2,2,10,10,20,7,-5
1319.0,0,-2,-2,1,1,-2,2,10,10,20,7,-5
1320.0,0,-2,-2,1,1,-2,2,10,10,21,7,-5
1321.0,0,-2,-2,1,1,-2,2,10,10,21,7,-5
1322.0,0,-2,-2,1,1,-2,2,10,10,21,7,-5
1323.0,0,-2,-2,1,1,-2,2,11,10,21,7,-5
1324.0,0,-2,-2,1,1,-2,2,11,10,21,8,-5
1325.0,0,-2,-2,1,1,-2,2,11,11,21,8,-5
1326.0,0,-2,-2,1,1,-2,2,11,11,21,8,-5
1327.0,0,-2,-2,1,1,-2,2,11,11,21,8,-5
1328.0,0,-2,-2,1,1,-2,2,11,11,22,8,-5
1329.0,0,-2,-2,1,1,-2,2,11,11,22,8,-5
1330.0,0,-2,-2,1,1,-2,2,11,11,22,8,-5
1331.0,0,-2,-2,1,1,-2,2,11,11,22,8,-5
1332.0,0,-2,-2,1,1,-2,2,11,11,22,8,-5
1333.0,0,-2,-2,1,1,-2,2,11,11,22,8,-5
1334.0,0,-2,-2,1,1,-2,2,11,11,22,8,-5
1335.0,0,-2,-2,1,1,-2,2,11,11,22,8,-5
1336.0,0,-2,-2,1,0,-2,2,11,11,22,8,-5
1337.0,0,-2,-2,1,0,-2,2,11,11,22,8,-5
1338.0,0,-2,-2,1,0,-2,2,11,11,22,9,-5
1339.0,0,-2,-2,1,0,-2,2,11,11,22,9,-5
1340.0,0,-2,-2,1,0,-2,2,11,11,22,9,-5
1341.0,0,-2,-2,1,0,-2,2,11,11,22,9,-5
1342.0,0,-2,-2,1,0,-2,2,11,11,23,9,-5
1343.0,0,-2,-2,1,0,-2,2,11,11,23,9,-5
1344.0,0,-2,-2,1,0,-2,2,11,11,23,9,-5
1345.0,0,-1,-2,1,1,-2,2,11,11,23,9,-5
1346.0,0,-1,-2,1,1,-2,2,11,11,23,9,-5
1347.0,0,-1,-2,1,1,-2,2,11,11,23,9,-5
1348.0,0,-2,-2,1,0,-2,2,11,11,23,9,-5
1349.0,0,-2,-2,1,0,-2,2,11,11,23,9,-5
1350.0,0,-2,-2,1,0,-2,2,11,11,23,9,-5
1351.0,0,-2,-2,1,0,-2,2,11,11,23,9,-5
1352.0,0,-2,-2,1,0,-2,2,11,11,23,9,-5
1353.0,0,-2,-1,1,0,-2,2,11,11,23,9,-5
1354.0,0,-2,-1,1,0,-2,2,11,11,23,9,-5
1355.0,0,-2,-1,1,0,-2,2,11,11,23,9,-5
1356.0,0,-2,-1,1,0,-2,2,11,11,23,9,-5
1357.0,0,-2,-1,1,0,-2,2,11,11,23,9,-5
1358.0,0,-2,-1,1,0,-2,2,11,11,23,9,-5
1359.0,0,-2,-2,1,0,-2,2,11,11,23,9,-5
1360.0,0,-2,-2,1,0,-2,2,11,12,23,9,-5
1361.0,0,-2,-2,1,0,-2,2,11,12,23,9,-5
1362.0,0,-2,-2,1,0,-2,2,11,12,23,9,-5
1363.0,0,-2,-2,1,0,-2,2,11,12,23,9,-5
1364.0,0,-1,-2,1,0,-2,2,11,12,23,9,-4
1365.0,0,-1,-2,1,1,-2,2,12,12,23,9,-4
1366.0,0,-1,-2,1,1,-2,2,12,12,23,9,-4
1367.0,0,-1,-2,0,1,-2,2,12,12,23,10,-4
1368.0,0,-1,-2,0,1,-2,2,12,12,24,10,-4
1369.0,0,-1,-2,0,1,-2,2,12,12,24,10,-4
1370.0,0,-1,-2,0,1,-2,2,12,12,24,10,-4
1371.0,0,-1,-2,0,1,-2,2,12,12,24,10,-4
1372.0,0,-1,-2,0,1,-2,2,12,12,24,10,-4
1373.0,0,-1,-2,0,1,-2,2,12,12,24,10,-4
1374.0,0,-1,-2,0,1,-2,2,12,12,24,10,-4
1375.0,0,-1,-2,0,1,-2,2,12,12,24,10,-4
1376.0,0,-1,-2,0,1,-2,2,12,12,24,10,-4
1377.0,0,-1,-2,0,1,-2,2,12,12,24,10,-4
1378.0,0,-1,-2,0,1,-2,2,12,12,24,10,-4
1379.0,0,-1,-2,0,1,-2,2,12,12,24,10,-4
1380.0,0,-1,-2,0,1,-2,2,12,12,24,10,-4
1381.0,0,-1,-2,0,1,-2,2,12,12,24,10,-4
1382.0,0,-1,-2,0,1,-2,2,12,12,24,10,-4
1383.0,0,-1,-2,0,1,-2,2,12,12,24,10,-4
1384.0,0,-1,-2,0,1,-2,2,12,12,24,10,-4
1385.0,0,-1,-2,0,1,-2,2,12,13,24,10,-4
1386.0,0,-1,-2,0,1,-2,2,12,13,24,10,-4
1387.0,0,-1,-2,0,1,-2,2,12,13,24,10,-4
1388.0,0,-1,-2,0,1,-2,2,12,13,24,10,-4
1389.0,0,-1,-2,0,1,-2,2,12,13,24,10,-4
1390.0,0,-1,-2,0,1,-1,2,12,13,24,10,-4
1391.0,0,-1,-2,0,1,-1,2,12,13,24,10,-4
1392.0,0,-1,-2,0,1,-1,2,12,13,24,10,-4
1393.0,0,-1,-2,0,1,-1,2,12,13,24,10,-4
1394.0,0,-1,-2,0,1,-1,2,12,13,24,10,-4
1395.0,0,-1,-2,0,1,-1,2,12,13,24,10,-4
1396.0,0,-1,-2,0,1,-2,2,12,13,25,10,-4
1397.0,0,-1,-2,0,1,-2,2,12,13,25,10,-4
1398.0,0,-1,-2,0,1,-2,2,12,13,25,10,-4
1399.0,0,-1,-2,0,1,-2,2,12,13,25,10,-4
1400.0,0,-1,-2,0,1,-2,2,12,13,25,11,-4
1401.0,0,-1,-2,0,1,-2,2,12,13,25,11,-4
1402.0,0,-1,-2,0,1,-2,2,12,13,25,11,-4
1403.0,0,-1,-2,0,1,-2,2,13,14,25,11,-4
1404.0,0,-1,-2,0,1,-2,2,13,14,25,11,-4
1405.0,0,-1,-2,0,1,-2,2,13,14,25,11,-4
1406.0,0,-1,-2,0,1,-2,2,13,14,25,11,-4
1407.0,0,-1,-2,0,1,-1,2,13,14,25,11,-3
1408.0,0,-1,-2,0,1,-1,2,13,14,25,11,-3
1409.0,0,-1,-2,0,1,-1,2,13,14,25,11,-3
1410.0,0,-1,-2,0,1,-1,2,13,14,26,11,-3
1411.0,0,-1,-2,0,1,-1,2,13,14,26,11,-3
1412.0,0,-1,-2,0,1,-1,2,13,14,26,11,-3
1413.0,0,-1,-2,0,1,-1,2,13,14,26,11,-3
1414.0,0,-1,-2,0,1,-1,2,13,14,26,11,-3
1415.0,0,-1,-2,0,1,-1,2,13,14,26,11,-3
1416.0,0,-1,-2,0,1,-1,2,13,15,26,11,-3
1417.0,0,-1,-2,0,1,-1,2,13,15,26,11,-3
1418.0,0,-1,-2,0,1,-1,2,13,15,26,12,-3
1419.0,0,-1,-2,0,1,-1,2,13,15,26,12,-3
1420.0,0,-1,-2,0,1,-1,2,14,15,27,12,-3
1421.0,0,-1,-2,0,1,-1,2,14,15,27,12,-3
1422.0,0,-1,-2,0,1,-1,2,14,15,27,12,-3
1423.0,0,-1,-2,0,1,-1,2,14,16,27,12,-3
1424.0,0,-1,-2,0,1,-1,2,14,16,27,12,-3
1425.0,0,-1,-2,0,1,-1,2,14,16,27,12,-3
1426.0,1,-1,-2,0,1,-1,2,14,16,27,12,-3
1427.0,1,-1,-2,0,1,-1,2,14,16,27,12,-3
1428.0,1,-1,-2,0,1,-1,2,14,16,28,12,-3
1429.0,1,-1,-2,0,1,-1,2,14,17,28,13,-3
1430.0,1,-1,-2,0,1,-1,2,14,17,28,13,-3
1431.0,1,-1,-2,0,1,-1,2,15,17,28,13,-3
1432.0,1,-1,-2,0,1,-1,2,15,17,28,13,-2
1433.0,1,-1,-2,0,1,-1,2,15,17,28,13,-2
1434.0,1,-1,-2,0,1,-1,2,15,17,29,13,-2
1435.0,1,-1,-2,0,1,-1,2,15,18,29,13,-2
1436.0,1,-1,-2,0,1,-1,2,15,18,29,13,-2
1437.0,1,-1,-2,0,1,-1,2,15,18,29,14,-2
1438.0,1,-1,-2,0,1,-1,2,15,18,29,14,-2
1439.0,1,-1,-2,0,1,-1,2,15,18,30,14,-2
1440.0,1,-1,-2,0,1,-1,2,16,18,30,14,-2
1441.0,1,-1,-2,0,1,-1,2,16,19,30,14,-2
1442.0,1,-1,-2,0,1,-1,2,16,19,30,14,-2
1443.0,1,-1,-2,0,1,-1,2,16,19,31,14,-2
1444.0,1,-1,-2,0,1,-1,2,16,20,31,15,-2
1445.0,1,-1,-2,0,1,-1,2,16,20,31,15,-2
1446.0,1,-1,-2,0,1,-1,2,17,20,31,15,-2
1447.0,1,0,-2,0,1,-1,2,17,20,32,15,-2
1448.0,1,0,-2,0,1,-1,2,17,21,32,15,-2
1449.0,1,0,-2,0,1,-1,2,17,21,32,15,-2
1450.0,1,0,-2,0,2,-1,2,17,21,32,16,-2
1451.0,1,0,-2,0,2,-1,2,17,21,33,16,-1
1452.0,1,0,-2,0,2,-1,2,18,22,33,16,-1
1453.0,2,0,-2,0,2,-1,2,18,22,33,16,-1
1454.0,2,0,-2,0,2,-1,2,18,22,34,16,-1
1455.0,2,0,-2,0,2,-1,2,18,22,34,17,-1
1456.0,2,0,-2,0,2,-1,2,18,22,34,17,-1
1457.0,2,0,-2,0,2,-1,2,18,23,35,17,-1
1458.0,1,0,-2,0,2,-1,2,19,23,35,17,-1
1459.0,1,0,-2,0,2,-1,2,19,23,35,17,-1
1460.0,1,0,-2,0,2,-1,2,19,24,36,18,-1
1461.0,1,0,-2,0,2,-1,2,19,24,36,18,-1
1462.0,1,0,-2,0,2,-1,2,19,24,36,18,0
1463.0,1,0,-2,0,2,-1,2,19,24,37,18,0
1464.0,2,0,-2,0,2,-1,2,20,25,37,19,0
1465.0,2,0,-2,0,2,-1,2,20,25,37,19,0
1466.0,2,0,-2,0,2,-1,2,20,25,38,19,0
1467.0,2,0,-2,0,2,-1,2,20,25,38,19,0
1468.0,2,0,-2,0,2,-1,2,20,26,38,20,0
1469.0,2,0,-2,0,2,-1,2,20,26,39,20,0
1470.0,2,0,-2,0,2,-1,2,21,26,39,20,0
1471.0,2,0,-2,0,2,-1,1,21,27,39,20,0
1472.0,2,0,-2,0,2,-1,1,21,27,40,21,0
1473.0,2,0,-2,-1,2,-1,1,21,27,40,21,0
1474.0,3,0,-2,-1,2,-1,1,22,28,41,21,0
1475.0,3,0,-2,-1,2,-1,1,22,28,41,21,0
1476.0,3,0,-2,-1,2,-1,1,22,28,41,22,0
1477.0,3,0,-2,-1,2,-1,1,22,28,42,22,1
1478.0,3,0,-2,-1,2,-1,1,22,28,42,22,1
1479.0,3,0,-2,-1,2,-1,1,22,29,42,22,1
1480.0,3,0,-2,-1,2,-1,1,23,29,42,23,1
1481.0,3,1,-2,-1,2,-1,0,23,29,43,23,1
1482.0,3,1,-2,-1,2,-1,0,23,29,43,23,1
1483.0,3,1,-2,-1,2,0,0,23,29,43,23,1
1484.0,3,1,-2,-1,2,0,0,23,30,44,24,2
1485.0,3,1,-2,-1,2,0,0,23,30,44,24,2
1486.0,3,1,-2,-1,2,0,0,24,30,44,24,2
1487.0,3,2,-2,-2,2,0,0,24,30,44,24,2
1488.0,4,2,-2,-2,2,0,0,24,31,45,25,3
1489.0,4,2,-2,-2,2,0,0,24,31,45,25,3
1490.0,4,2,-2,-2,2,0,0,24,31,45,25,3
1491.0,4,2,-2,-2,2,0,0,24,31,45,25,3
1492.0,4,3,-1,-2,2,0,0,24,31,46,25,3
1493.0,4,3,-1,-2,2,0,0,24,31,46,26,3
1494.0,4,3,-1,-2,2,0,0,24,31,46,26,4
1495.0,4,3,-1,-2,2,0,0,24,31,46,26,4
1496.0,4,3,-1,-2,2,0,0,24,31,46,26,4
1497.0,4,3,-1,-3,2,0,-1,23,31,46,26,4
1498.0,4,3,-1,-3,2,0,-1,23,31,47,26,4
1499.0,4,3,-1,-3,2,0,-1,23,31,47,27,4
1500.0,4,3,-1,-3,2,0,-1,23,30,47,27,4
1501.0,4,3,-1,-3,2,0,-1,23,30,47,27,4
1502.0,4,4,-1,-3,2,0,-1,23,30,47,27,4
1503.0,4,4,-1,-3,2,0,-2,23,30,47,27,5
1504.0,4,4,-1,-3,2,0,-2,22,30,47,27,5
1505.0,4,4,-1,-3,2,1,-2,22,29,47,27,5
1506.0,4,4,-1,-3,2,1,-2,22,29,47,27,5
1507.0,4,4,0,-3,2,1,-2,22,29,47,27,5
1508.0,4,4,0,-3,2,1,-2,21,28,46,27,5
1509.0,4,4,0,-3,2,1,-2,21,28,46,27,6
1510.0,4,4,0,-4,2,1,-2,21,28,46,27,6
1511.0,4,4,0,-4,2,1,-2,21,27,46,27,6
1512.0,4,4,0,-4,2,1,-3,20,27,46,27,6
1513.0,4,4,0,-4,2,1,-3,20,26,45,27,6
1514.0,4,4,0,-4,2,1,-3,20,26,45,27,6
1515.0,4,4,0,-4,2,1,-3,19,25,45,27,6
1516.0,4,4,0,-4,2,1,-3,19,24,45,27,6
1517.0,4,4,0,-4,2,1,-3,19,24,44,27,6
1518.0,4,4,0,-4,2,1,-3,18,24,44,27,6
1519.0,4,4,0,-4,2,1,-3,18,23,44,27,6
1520.0,4,4,0,-4,2,1,-3,18,22,43,26,6
1521.0,4,4,0,-4,2,1,-3,18,22,43,26,6
1522.0,5,4,0,-4,2,1,-3,17,22,42,26,6
1523.0,5,4,0,-4,2,1,-3,17,21,42,26,6
1524.0,5,4,0,-4,2,1,-3,17,20,41,26,7
1525.0,5,4,0,-4,2,1,-3,17,20,41,26,7
1526.0,5,4,0,-4,2,1,-3,16,20,41,25,7
1527.0,5,4,0,-4,2,1,-3,16,19,40,25,7
1528.0,5,4,0,-4,2,1,-3,16,18,39,25,7
1529.0,5,4,0,-4,2,1,-3,15,18,39,25,7
1530.0,5,4,0,-4,2,1,-3,15,18,38,24,7
1531.0,5,4,0,-4,2,1,-3,15,17,37,24,7
1532.0,5,4,0,-4,2,1,-2,14,16,37,24,7
1533.0,5,4,0,-4,2,1,-2,14,16,36,24,7
1534.0,5,4,0,-4,2,1,-2,14,15,36,23,6
1535.0,5,4,0,-4,2,1,-2,13,14,35,23,6
1536.0,5,4,0,-4,2,1,-2,13,14,34,22,6
1537.0,5,4,0,-4,2,1,-2,12,14,34,22,6
1538.0,5,4,0,-4,2,1,-2,12,13,33,22,6
1539.0,5,3,0,-4,2,1,-2,12,12,32,21,6
1540.0,5,3,0,-4,2,1,-2,11,12,32,21,6
1541.0,4,3,0,-4,2,1,-2,11,12,31,21,6
1542.0,4,3,0,-4,2,1,-2,11,11,30,20,6
1543.0,4,3,0,-4,2,1,-2,10,11,29,20,6
1544.0,4,3,0,-4,2,1,-2,10,10,28,19,5
1545.0,4,3,0,-4,2,1,-2,10,10,28,19,5
1546.0,4,3,0,-4,2,1,-2,9,10,27,19,5
1547.0,4,3,0,-4,2,1,-2,9,9,26,18,5
1548.0,4,3,0,-4,2,1,-2,9,9,26,18,5
1549.0,4,3,0,-4,2,1,-2,8,9,25,17,5
1550.0,4,3,0,-4,2,1,-2,8,8,24,17,5
1551.0,4,3,0,-4,2,1,-1,8,8,23,16,5
1552.0,4,3,0,-4,2,1,-1,7,8,23,16,5
1553.0,4,3,0,-4,2,1,-1,7,7,22,16,5
1554.0,4,3,0,-3,2,1,-1,7,7,21,15,4
1555.0,4,3,0,-3,2,1,-1,6,6,20,14,4
1556.0,4,3,0,-3,2,1,-1,6,6,20,14,4
1557.0,4,3,0,-3,2,1,-1,6,6,19,14,4
1558.0,3,2,0,-3,2,1,-1,5,5,18,13,4
1559.0,3,2,0,-3,2,1,-1,5,5,18,13,4
1560.0,3,2,0,-3,2,1,-1,5,5,17,12,4
1561.0,3,2,0,-3,2,1,-1,5,5,17,12,4
1562.0,3,2,0,-3,2,1,-1,4,4,16,11,4
1563.0,3,2,0,-3,2,1,-1,4,4,15,11,3
1564.0,3,2,0,-3,2,1,-1,4,4,15,11,3
1565.0,3,2,0,-3,2,1,-1,4,4,14,10,3
1566.0,3,2,0,-3,2,1,-1,3,3,13,10,3
1567.0,3,2,0,-3,2,1,-1,3,3,13,9,3
1568.0,3,2,0,-3,2,1,-1,3,3,13,9,3
1569.0,3,2,0,-3,2,0,-1,3,3,12,9,3
1570.0,2,2,0,-3,2,0,-1,2,2,11,8,3
1571.0,2,2,0,-3,2,0,0,2,2,11,8,3
1572.0,2,2,0,-3,2,0,0,2,2,10,8,3
1573.0,2,2,0,-3,2,0,0,2,2,10,7,3
1574.0,2,2,0,-2,1,0,0,2,2,9,7,2
1575.0,2,2,0,-2,1,1,0,2,2,9,7,2
1576.0,2,2,0,-2,1,1,0,2,2,8,6,2
1577.0,2,2,0,-2,1,1,0,2,2,8,6,2
1578.0,2,2,0,-2,1,1,0,2,2,7,6,2
1579.0,2,2,0,-2,1,1,0,2,2,7,6,2
1580.0,2,2,0,-2,1,1,0,2,2,7,5,2
1581.0,2,2,0,-2,1,1,0,2,2,6,5,2
1582.0,2,2,0,-2,1,1,0,2,2,6,4,2
1583.0,2,2,0,-2,1,1,0,1,2,5,4,2
1584.0,2,2,0,-2,1,1,0,1,2,5,4,2
1585.0,2,2,0,-2,1,1,0,1,1,5,4,2
1586.0,2,2,0,-2,1,1,0,1,1,5,3,2
1587.0,2,2,0,-2,1,1,0,1,1,5,3,2
1588.0,2,2,0,-2,1,1,0,1,1,5,3,2
1589.0,2,2,0,-2,1,1,0,1,1,4,3,2
1590.0,2,2,0,-2,1,1,0,1,1,4,2,1
1591.0,2,2,0,-2,1,1,0,0,1,4,2,1
1592.0,2,2,0,-2,1,1,0,0,1,3,2,1
1593.0,1,2,0,-2,1,1,0,0,0,3,2,1
1594.0,1,2,0,-2,1,1,0,0,0,3,2,1
1595.0,1,2,0,-2,1,1,0,0,0,3,2,1
1596.0,1,1,0,-2,1,1,0,0,0,2,2,1
1597.0,1,1,0,-2,0,1,0,0,0,2,2,1
1598.0,1,1,0,-2,0,1,0,0,0,2,2,1
1599.0,1,1,0,-2,0,1,0,0,0,2,2,1
1600.0,1,1,0,-1,0,1,0,0,0,1,1,1
1601.0,1,1,0,-1,0,1,0,0,0,1,1,1
1602.0,1,1,0,-1,0,1,0,0,0,1,1,1
1603.0,1,1,0,-1,0,1,0,0,0,1,1,0
1604.0,1,1,0,-1,0,1,1,-1,-1,0,1,0
1605.0,1,1,0,-1,0,1,1,-1,-1,0,1,0
1606.0,1,1,0,-1,0,1,1,-1,-1,0,0,0
1607.0,1,1,0,-1,0,1,1,-1,-1,0,0,0
1608.0,1,1,0,-1,0,1,1,-1,-1,0,0,0
1609.0,1,1,0,-1,0,1,1,-1,-1,0,0,0
1610.0,1,1,0,-1,0,1,1,-1,-1,-1,0,0
1611.0,1,1,0,-1,0,1,1,-1,-1,-1,0,0
1612.0,1,1,0,-1,0,1,1,-1,-1,-1,0,0
1613.0,1,1,0,-1,0,1,1,-1,-1,-1,0,0
1614.0,1,1,0,-1,0,1,1,-1,-1,-1,0,0
1615.0,1,1,0,-1,0,1,1,-1,-1,-1,0,0
1616.0,1,1,0,-1,0,1,1,-1,-1,-1,-1,0
1617.0,1,1,0,-1,0,1,1,-1,-1,-1,-1,0
1618.0,1,1,0,-1,0,1,1,-1,-1,-2,-1,0
1619.0,1,1,0,-1,0,1,1,-1,-1,-2,-1,0
1620.0,0,1,0,-1,0,1,1,-1,-1,-2,-1,0
1621.0,0,1,0,-1,0,1,1,-1,-2,-2,-1,0
1622.0,0,1,0,-1,0,1,1,-1,-2,-2,-1,0
1623.0,0,1,0,-1,0,1,1,-1,-2,-2,-1,0
1624.0,0,1,0,-1,0,1,1,-1,-2,-2,-1,0
1625.0,0,1,0,-1,0,1,1,-1,-2,-2,-1,0
1626.0,0,1,0,-1,0,1,1,-1,-2,-2,-1,0
1627.0,0,1,0,-1,0,0,1,-1,-2,-2,-2,0
1628.0,0,0,0,-1,0,0,1,-1,-2,-2,-2,0
1629.0,0,0,0,-1,0,0,1,-1,-2,-3,-2,0
1630.0,0,0,0,-1,0,0,1,-1,-2,-3,-2,0
1631.0,0,0,0,0,0,0,1,-1,-2,-3,-2,0
1632.0,0,0,0,0,0,0,1,-1,-2,-3,-2,-1
1633.0,0,0,0,0,0,0,1,-1,-2,-3,-2,-1
1634.0,0,0,0,0,0,0,2,-1,-2,-3,-2,-1
1635.0,0,0,0,0,0,0,2,-1,-2,-3,-2,-1
1636.0,0,0,0,0,0,0,2,-1,-2,-3,-2,-1
1637.0,0,0,0,0,0,0,2,-1,-2,-3,-2,-1
1638.0,0,0,0,0,0,0,2,-1,-2,-3,-2,-1
1639.0,0,0,0,0,0,0,2,-1,-2,-3,-3,-1
1640.0,0,0,0,0,0,0,2,-1,-2,-3,-3,-1
1641.0,0,0,0,0,0,0,2,-1,-2,-3,-3,-1
1642.0,0,0,0,0,0,0,2,-1,-2,-3,-3,-1
1643.0,0,0,0,0,0,0,2,-1,-2,-3,-3,-1
1644.0,0,0,0,0,0,0,2,-1,-2,-3,-3,-1
1645.0,0,0,0,0,0,0,2,-1,-2,-3,-3,-1
1646.0,0,0,0,0,0,0,2,-1,-2,-3,-3,-1
1647.0,0,0,0,0,0,0,2,-1,-2,-3,-3,-1
1648.0,0,0,0,0,0,0,2,-1,-2,-3,-3,-1
1649.0,0,0,0,0,0,0,2,-1,-2,-3,-3,-1
1650.0,0,0,0,0,0,0,2,-1,-2,-3,-3,-1
1651.0,0,0,0,0,0,0,2,-1,-2,-3,-3,-1
1652.0,0,0,0,0,0,0,2,-1,-2,-3,-3,-1
1653.0,0,0,0,0,0,0,2,-1,-2,-3,-3,-1
1654.0,0,0,0,0,0,0,2,-1,-2,-3,-3,-1
1655.0,0,0,0,0,0,0,2,-1,-2,-3,-3,-1
1656.0,0,0,0,0,0,0,2,-1,-2,-3,-3,-1
1657.0,0,0,0,0,0,0,2,-1,-2,-3,-3,-1
1658.0,0,0,0,0,0,0,2,-1,-2,-3,-3,-1
1659.0,0,0,0,0,0,0,2,-1,-2,-3,-3,-1
