time_ms,I,II,III,aVR,aVL,aVF,V1,V2,V3,V4,V5,V6
0.0,1,9,0,0,3,3,0,0,2,2,1,0
1.0,1,9,0,0,3,3,0,0,2,2,1,0
2.0,1,9,0,0,3,3,0,0,2,2,1,0
3.0,1,9,0,0,3,3,0,0,2,2,1,0
4.0,1,9,0,0,3,3,0,0,2,2,1,0
5.0,1,9,0,0,3,3,0,0,2,2,1,0
6.0,1,9,0,0,3,3,0,0,2,2,1,0
7.0,1,9,0,0,3,3,0,0,2,2,1,0
8.0,1,9,0,0,3,3,0,0,2,2,1,0
9.0,1,9,0,0,3,3,0,0,2,2,1,0
10.0,1,9,0,0,3,3,0,0,2,2,1,0
11.0,1,9,0,0,3,3,0,0,2,2,1,0
12.0,1,9,0,0,3,3,0,0,2,2,1,0
13.0,1,9,0,0,3,3,0,0,2,2,1,0
14.0,1,9,0,0,3,3,0,0,2,2,1,0
15.0,1,9,0,0,3,3,0,0,2,2,1,0
16.0,1,9,0,0,3,3,0,0,2,2,1,0
17.0,1,9,0,0,3,3,0,0,2,2,1,0
18.0,1,9,0,0,3,3,0,0,2,2,1,0
19.0,1,9,0,0,3,3,0,0,2,2,1,0
20.0,1,9,0,0,3,3,0,0,2,2,1,0
21.0,1,9,0,0,3,3,0,0,2,2,1,0
22.0,1,9,0,0,3,3,0,0,2,2,1,0
23.0,1,9,0,0,3,3,0,0,2,2,1,0
24.0,1,9,0,0,3,3,0,0,2,2,1,0
25.0,1,9,0,0,3,3,0,0,2,2,1,0
26.0,1,9,0,0,3,3,0,0,2,2,1,0
27.0,1,9,0,0,3,3,0,0,2,2,1,0
28.0,1,9,0,0,3,3,0,0,2,2,1,0
29.0,1,9,0,0,3,3,0,0,2,2,1,0
30.0,1,9,0,0,3,3,0,0,2,2,1,0
31.0,1,9,0,0,3,3,0,0,2,2,1,0
32.0,1,9,0,0,3,3,0,0,2,2,1,0
33.0,1,9,0,0,3,3,0,0,2,2,1,0
34.0,2,9,0,0,3,3,0,0,2,2,1,0
35.0,2,9,0,-1,3,3,0,0,2,2,1,0
36.0,2,9,0,-1,3,3,0,0,2,2,1,0
37.0,2,9,0,-1,3,3,0,0,2,2,1,0
38.0,2,9,0,-1,3,3,0,0,2,2,1,0
39.0,2,9,0,-1,3,3,0,0,2,2,1,0
40.0,2,9,0,-1,3,3,0,0,2,2,1,0
41.0,2,10,0,-1,3,3,0,0,2,2,1,0
42.0,2,10,0,-1,3,3,0,0,2,2,1,0
43.0,2,10,0,-1,3,4,0,0,2,2,1,0
44.0,2,10,0,-1,3,4,0,0,2,2,1,0
45.0,2,10,0,-1,3,4,0,0,2,2,1,0
46.0,1,9,0,-1,3,4,0,0,2,2,1,0
47.0,1,9,0,-1,3,4,0,0,2,2,1,0
48.0,1,9,0,-1,3,4,0,0,2,2,1,0
49.0,1,9,0,-1,3,4,0,0,2,2,1,0
50.0,1,9,0,-1,3,4,0,0,2,2,1,0
51.0,1,9,0,-1,2,4,0,0,2,2,1,0
52.0,1,9,0,-1,2,4,0,0,2,2,1,0
53.0,1,9,0,-1,2,4,0,0,1,2,1,0
54.0,1,9,0,-1,2,4,0,0,1,2,1,0
55.0,1,9,0,-1,2,4,0,0,1,2,1,0
56.0,1,9,0,-1,2,4,0,0,1,2,1,0
57.0,1,9,0,-1,2,4,0,0,1,2,1,0
58.0,1,9,0,-1,2,4,0,0,1,2,1,0
59.0,1,9,1,-1,2,4,0,0,2,2,1,0
60.0,1,9,1,-1,2,4,0,0,2,2,1,0
61.0,1,9,1,-1,2,4,0,0,2,2,1,0
62.0,1,9,1,-1,2,4,0,0,2,2,1,0
63.0,1,9,1,-1,2,4,0,0,2,2,1,0
64.0,1,9,1,-1,2,4,0,0,2,2,1,0
65.0,1,9,1,-1,2,4,0,0,2,2,1,0
66.0,1,9,1,-1,2,4,0,0,1,2,1,0
67.0,1,9,1,-1,2,4,0,0,1,2,1,0
68.0,1,9,1,-1,2,4,0,0,1,2,1,0
69.0,1,9,1,-1,2,4,0,0,1,2,1,0
70.0,1,9,1,-1,2,4,0,0,1,2,1,0
71.0,1,9,1,-1,2,4,0,0,1,2,1,0
72.0,1,9,1,-1,2,4,0,0,1,2,1,0
73.0,1,9,1,-1,2,4,0,0,1,2,1,0
74.0,1,9,1,-1,2,4,0,0,1,2,1,0
75.0,1,9,1,-1,2,4,0,0,1,2,1,0
76.0,1,9,1,-1,2,4,0,0,1,2,1,0
77.0,1,9,1,-1,2,4,0,0,1,2,1,0
78.0,1,9,1,-1,2,4,0,-1,1,2,1,0
79.0,1,9,0,-1,2,4,0,-1,1,2,1,0
80.0,1,9,0,-1,2,4,0,-1,1,2,1,0
81.0,1,9,0,-1,2,4,0,-1,1,1,1,0
82.0,1,9,0,-1,2,4,0,-1,1,1,1,0
83.0,1,9,0,-1,2,4,0,-1,1,1,0,0
84.0,1,9,0,-1,2,4,0,-1,1,1,0,0
85.0,1,9,0,-1,2,4,0,-1,1,1,0,0
86.0,1,9,0,-1,2,4,0,-1,1,1,0,0
87.0,1,9,0,0,2,4,0,-1,1,1,0,0
88.0,1,9,0,0,2,4,0,-1,1,1,0,0
89.0,1,9,0,0,2,4,0,-1,0,1,0,0
90.0,1,9,0,0,2,4,0,-1,0,1,0,0
91.0,1,9,0,0,2,4,0,-1,0,1,0,0
92.0,1,9,0,0,2,4,0,-1,0,1,0,0
93.0,1,9,0,0,2,4,0,-1,0,1,0,0
94.0,1,9,0,0,2,4,0,-1,0,1,0,0
95.0,1,9,0,0,2,4,0,-1,0,1,0,0
96.0,1,9,0,0,2,4,0,-1,0,1,0,0
97.0,1,9,0,-1,2,4,0,-1,1,1,0,0
98.0,1,9,0,-1,2,4,0,-1,1,1,0,0
99.0,1,9,0,-1,2,4,0,-1,1,1,0,0
100.0,1,9,0,-1,2,4,0,-1,1,1,0,0
101.0,1,9,0,-1,2,4,0,-1,1,1,0,0
102.0,1,9,0,-1,2,4,0,-1,1,1,0,0
103.0,1,9,0,-1,2,4,0,-1,1,1,0,0
104.0,1,9,0,-1,2,4,0,-1,1,1,0,0
105.0,1,9,0,-1,2,4,0,-1,1,1,0,0
106.0,1,9,0,-1,2,4,0,-1,1,1,0,0
107.0,1,9,0,-1,2,4,0,-1,1,1,0,0
108.0,1,9,0,-1,2,4,0,-1,1,1,0,0
109.0,1,9,1,-1,2,4,0,-1,0,1,0,0
110.0,1,9,1,-1,2,4,0,-1,0,1,0,0
111.0,1,9,1,-1,2,4,0,-1,0,1,0,0
112.0,1,9,1,0,2,4,0,-1,0,1,0,0
113.0,1,9,1,0,2,4,0,-1,0,1,0,0
114.0,1,9,1,0,2,4,0,-1,0,1,0,0
115.0,1,9,1,0,2,4,0,-1,0,1,0,0
116.0,1,9,1,0,2,4,0,-1,0,1,0,0
117.0,1,9,1,0,2,4,0,-1,0,1,0,0
118.0,1,9,1,0,2,4,0,-1,-1,1,0,0
119.0,1,9,1,0,2,4,0,-1,-1,1,0,0
120.0,1,9,1,0,2,4,0,-1,-1,0,0,0
121.0,1,9,1,0,2,4,0,-1,-1,0,0,0
122.0,1,9,0,0,2,4,0,-1,-1,0,0,0
123.0,1,9,0,0,2,4,0,-1,-1,0,0,0
124.0,1,9,0,0,2,4,0,-2,-1,0,0,0
125.0,1,9,0,0,2,4,0,-2,-1,0,0,0
126.0,1,9,0,0,2,4,0,-2,-1,0,0,0
127.0,1,8,0,0,2,4,0,-2,-1,0,0,0
128.0,1,8,0,0,2,4,0,-2,-2,0,0,0
129.0,1,8,0,0,2,4,0,-2,-2,0,0,0
130.0,1,8,0,0,2,4,0,-2,-2,0,0,0
131.0,1,8,0,0,2,3,0,-2,-2,0,-1,0
132.0,1,8,0,0,2,3,0,-2,-2,0,-1,0
133.0,1,8,0,0,2,3,0,-2,-2,0,-1,0
134.0,1,8,0,0,2,3,0,-2,-2,0,-1,0
135.0,1,8,0,0,2,3,0,-2,-2,0,-1,0
136.0,1,8,0,0,2,3,0,-2,-2,-1,-1,0
137.0,1,8,0,0,2,3,0,-2,-2,-1,-1,0
138.0,1,8,0,0,2,3,0,-2,-2,-1,-1,0
139.0,1,8,0,0,2,3,0,-2,-2,-1,-1,0
140.0,1,8,0,0,2,3,0,-2,-2,-1,-1,0
141.0,1,8,0,0,2,3,0,-2,-2,-1,-1,0
142.0,1,8,0,0,2,3,0,-2,-2,-1,-1,0
143.0,1,8,0,0,2,3,0,-2,-2,-1,-1,0
144.0,1,8,0,0,2,3,0,-2,-2,-1,-1,0
145.0,1,8,0,0,2,3,0,-2,-2,-1,-1,0
146.0,1,8,0,0,2,3,0,-2,-2,-1,-1,0
147.0,1,8,0,0,2,3,0,-2,-2,-1,-1,0
148.0,1,8,0,0,2,3,0,-2,-2,-1,-1,0
149.0,1,8,0,0,2,3,0,-2,-2,-1,-1,0
150.0,1,8,0,0,2,3,0,-2,-2,-1,-1,0
151.0,1,8,0,0,2,3,0,-2,-2,-1,-1,0
152.0,5,6,-2,0,3,2,0,9,-6,-1,-1,-1
153.0,18,4,-7,0,8,0,-1,33,-11,-2,-2,-3
154.0,25,-2,-9,-2,11,-3,-2,51,-12,-3,-3,-6
155.0,23,-2,-11,-2,11,-4,-2,48,-10,-4,-3,-6
156.0,17,1,-10,-1,10,-3,-1,37,-6,-3,-3,-4
157.0,12,3,-9,-1,9,-3,-1,26,-4,-3,-3,-3
158.0,6,6,-7,-1,8,-1,0,14,-1,-3,-2,-2
159.0,2,8,-5,-1,6,0,0,1,0,-2,-2,0
160.0,0,9,-4,0,5,1,0,-7,1,-2,-2,0
161.0,-2,10,-3,0,5,1,0,-10,2,-2,-2,0
162.0,-4,11,-2,0,3,2,0,-13,2,-2,-2,1
163.0,-5,11,-1,0,3,2,0,-15,1,-1,-2,1
164.0,-5,11,-1,0,3,2,0,-15,1,-1,-1,1
165.0,-5,12,0,0,2,3,0,-16,1,-1,-1,1
166.0,-5,12,1,0,2,4,0,-15,0,-1,-1,1
167.0,-5,11,1,0,1,4,0,-15,0,-1,-1,1
168.0,-5,11,2,1,1,4,0,-14,0,-1,-1,1
169.0,-4,11,2,1,1,4,0,-13,-1,-1,-1,1
170.0,-4,11,2,1,0,5,0,-12,-1,-1,-1,0
171.0,-3,11,3,1,0,5,0,-11,-1,-1,-1,0
172.0,-3,10,3,1,0,5,0,-10,-2,-1,-1,0
173.0,-3,10,3,1,0,5,0,-9,-2,-1,-1,0
174.0,-2,10,3,1,0,5,0,-8,-2,-1,-1,0
175.0,-2,9,3,1,0,5,0,-7,-3,-1,-1,0
176.0,-1,9,3,1,0,5,0,-7,-3,-1,-1,0
177.0,-1,9,3,1,0,5,0,-6,-3,-1,-1,0
178.0,-1,9,3,1,0,5,0,-5,-3,-1,-1,0
179.0,-1,9,3,1,0,5,0,-5,-3,-1,-1,0
180.0,0,9,3,1,0,5,0,-5,-3,-1,-1,0
181.0,0,8,3,1,0,5,0,-4,-3,-1,-1,0
182.0,0,8,2,1,0,5,0,-4,-4,-1,-1,0
183.0,0,8,2,1,0,4,0,-3,-4,-1,-1,0
184.0,0,8,2,1,0,4,0,-3,-4,-2,-1,0
185.0,0,8,2,1,0,4,0,-3,-4,-2,-1,0
186.0,1,8,2,1,0,4,0,-3,-4,-2,-1,0
187.0,1,8,2,1,1,4,0,-3,-4,-2,-1,0
188.0,1,8,2,1,1,4,0,-3,-4,-2,-1,0
189.0,1,8,2,1,1,4,0,-2,-5,-2,-1,0
190.0,1,8,2,1,1,4,0,-2,-5,-2,-1,0
191.0,1,9,2,1,1,4,0,-2,-5,-2,-1,0
192.0,1,9,2,0,1,4,0,-2,-5,-2,-1,0
193.0,1,9,1,0,1,4,0,-2,-5,-2,-1,0
194.0,1,9,1,0,1,4,0,-2,-5,-2,-1,0
195.0,1,9,1,0,1,4,0,-2,-5,-2,-1,0
196.0,1,9,1,0,1,4,0,-2,-5,-2,-1,0
197.0,2,10,1,0,2,4,0,-2,-5,-2,-1,0
198.0,2,10,1,0,2,4,0,-2,-5,-2,-1,0
199.0,2,10,1,0,2,4,-1,-2,-5,-2,-1,0
200.0,2,10,1,0,2,4,-1,-2,-5,-2,-1,0
201.0,2,11,1,-1,2,4,-1,-2,-5,-2,-1,0
202.0,3,11,1,-1,2,4,-1,-2,-4,-2,-1,0
203.0,3,11,1,-1,2,4,-1,-2,-4,-2,-1,0
204.0,3,12,1,-1,2,5,-2,-2,-4,-1,-1,1
205.0,4,12,1,-1,2,5,-2,-2,-4,-1,0,1
206.0,4,13,1,-2,2,5,-3,-2,-4,-1,0,2
207.0,5,13,1,-2,3,5,-3,-2,-4,-1,0,2
208.0,5,14,1,-2,3,5,-3,-2,-3,0,0,2
209.0,6,14,1,-3,3,5,-4,-2,-3,0,1,3
210.0,6,15,1,-3,3,5,-4,-2,-4,0,1,3
211.0,6,15,1,-3,3,5,-5,-2,-4,0,1,4
212.0,7,16,1,-4,3,6,-6,-3,-4,1,2,4
213.0,8,16,1,-4,3,6,-7,-3,-5,1,2,5
214.0,9,17,1,-4,3,6,-7,-3,-6,1,2,5
215.0,9,17,1,-5,3,6,-8,-4,-6,2,3,6
216.0,10,18,1,-5,3,6,-9,-4,-6,2,3,7
217.0,11,19,1,-6,4,7,-10,-5,-6,2,4,7
218.0,12,19,1,-6,4,7,-11,-5,-7,2,4,8
219.0,12,20,1,-6,4,7,-12,-5,-7,3,4,8
220.0,14,20,0,-7,5,7,-13,-6,-8,3,5,10
221.0,15,21,0,-8,5,7,-14,-6,-8,4,6,11
222.0,16,22,0,-8,6,7,-15,-7,-9,4,6,12
223.0,16,22,0,-9,6,7,-16,-7,-9,4,7,12
224.0,18,23,0,-10,7,8,-18,-8,-10,5,8,14
225.0,19,24,-1,-10,7,8,-19,-8,-10,5,9,15
226.0,20,25,-1,-11,7,8,-20,-9,-11,6,10,17
227.0,21,26,-1,-12,8,8,-21,-10,-11,7,11,18
228.0,22,26,-1,-12,9,8,-22,-10,-12,7,12,20
229.0,24,27,-2,-13,9,9,-23,-11,-12,8,13,21
230.0,25,28,-2,-14,10,9,-25,-11,-12,8,14,23
231.0,26,29,-2,-15,10,9,-26,-12,-12,9,15,25
232.0,28,30,-2,-16,11,9,-27,-12,-13,10,16,26
233.0,29,30,-2,-17,12,9,-28,-13,-13,10,17,28
234.0,30,31,-2,-17,13,9,-29,-14,-13,11,18,29
235.0,32,32,-3,-18,13,9,-30,-14,-13,12,19,31
236.0,33,32,-3,-19,14,10,-31,-15,-13,12,20,32
237.0,34,33,-3,-20,15,10,-31,-16,-12,13,21,33
238.0,34,33,-4,-21,15,10,-32,-16,-12,14,23,35
239.0,35,34,-4,-21,16,10,-33,-17,-11,14,24,36
240.0,36,34,-4,-22,16,10,-33,-17,-10,15,25,37
241.0,36,34,-5,-23,17,10,-34,-18,-9,16,26,38
242.0,36,35,-5,-23,17,10,-34,-18,-8,16,26,39
243.0,37,35,-5,-24,18,10,-34,-18,-7,17,28,40
244.0,38,35,-6,-24,19,10,-34,-18,-6,18,29,41
245.0,38,35,-6,-25,19,10,-34,-18,-4,19,30,42
246.0,38,35,-7,-26,20,10,-34,-17,-3,19,31,43
247.0,39,35,-7,-26,20,10,-34,-17,-1,20,31,44
248.0,39,35,-7,-26,21,10,-33,-17,0,21,32,44
249.0,39,34,-8,-27,21,10,-33,-17,2,21,33,45
250.0,40,34,-8,-27,22,10,-33,-17,2,22,33,45
251.0,40,34,-8,-28,22,10,-32,-16,3,23,34,46
252.0,40,34,-9,-28,23,10,-32,-16,4,23,35,46
253.0,40,34,-9,-28,23,10,-32,-16,3,24,35,46
254.0,41,34,-9,-29,23,10,-31,-16,2,24,35,46
255.0,41,34,-10,-29,24,10,-31,-16,1,24,35,46
256.0,41,34,-10,-29,24,10,-30,-16,-1,24,36,46
257.0,40,34,-10,-29,24,9,-29,-16,-3,24,36,46
258.0,40,33,-10,-29,25,9,-28,-16,-6,24,35,45
259.0,40,32,-11,-29,25,9,-27,-16,-8,23,35,45
260.0,39,31,-11,-29,25,9,-26,-16,-11,23,35,44
261.0,39,30,-11,-29,25,8,-25,-16,-14,22,34,43
262.0,38,29,-12,-29,25,8,-24,-17,-16,21,34,42
263.0,37,27,-12,-29,26,7,-22,-17,-20,20,33,41
264.0,36,26,-13,-28,26,7,-21,-17,-23,18,32,39
265.0,35,24,-13,-28,26,6,-19,-17,-27,17,31,38
266.0,34,23,-13,-27,26,6,-17,-17,-29,16,30,36
267.0,32,21,-14,-26,26,5,-15,-18,-32,14,29,34
268.0,30,19,-14,-26,25,5,-14,-18,-34,13,27,32
269.0,28,18,-14,-25,25,4,-12,-18,-36,11,26,30
270.0,26,16,-14,-24,25,4,-10,-19,-37,9,24,28
271.0,25,15,-14,-23,24,3,-8,-19,-38,7,23,26
272.0,23,14,-14,-22,24,3,-6,-19,-39,5,21,24
273.0,21,12,-14,-21,23,3,-5,-19,-39,3,20,22
274.0,18,11,-14,-20,22,2,-3,-19,-39,1,18,19
275.0,16,10,-13,-19,22,2,-1,-19,-38,0,16,17
276.0,14,9,-13,-17,21,1,0,-19,-37,-2,15,15
277.0,11,8,-13,-16,20,1,1,-19,-36,-4,12,12
278.0,10,7,-12,-15,19,1,3,-19,-35,-5,11,10
279.0,8,6,-12,-14,18,1,4,-19,-34,-6,10,8
280.0,6,6,-11,-13,17,1,5,-19,-32,-7,8,6
281.0,5,6,-11,-12,16,1,6,-19,-31,-9,7,4
282.0,3,5,-10,-11,15,1,7,-18,-30,-10,5,3
283.0,1,4,-10,-9,14,1,8,-18,-28,-11,4,1
284.0,1,4,-9,-8,13,1,9,-17,-27,-12,2,0
285.0,-1,3,-8,-7,12,1,10,-17,-25,-13,1,-1
286.0,-2,2,-8,-6,11,0,11,-16,-24,-14,0,-3
287.0,-3,2,-7,-5,10,0,11,-16,-23,-15,-1,-4
288.0,-4,1,-7,-4,9,0,12,-15,-22,-16,-2,-5
289.0,-5,0,-6,-3,8,0,12,-15,-21,-16,-3,-6
290.0,-6,0,-6,-2,8,0,12,-14,-20,-17,-4,-6
291.0,-6,0,-6,-1,7,0,12,-13,-19,-17,-5,-7
292.0,-7,-1,-5,0,6,0,12,-13,-18,-18,-5,-8
293.0,-7,-1,-5,1,5,0,12,-12,-17,-18,-6,-8
294.0,-7,-1,-4,1,5,-1,12,-11,-16,-18,-7,-9
295.0,-8,-1,-4,1,4,-1,11,-11,-15,-18,-7,-9
296.0,-8,-1,-4,2,4,-1,11,-10,-14,-18,-8,-9
297.0,-8,-1,-3,2,3,-1,11,-10,-14,-18,-9,-9
298.0,-8,-1,-3,3,3,-1,10,-9,-13,-18,-9,-10
299.0,-8,-1,-3,3,3,-1,10,-9,-12,-18,-9,-10
300.0,-8,-1,-3,4,3,-1,10,-8,-11,-18,-10,-10
301.0,-8,-1,-2,4,2,-1,9,-7,-10,-18,-10,-10
302.0,-8,-1,-2,4,2,-1,9,-7,-10,-18,-10,-10
303.0,-8,-1,-2,5,2,-1,9,-6,-9,-17,-11,-10
304.0,-8,0,-2,5,1,-1,9,-5,-8,-17,-11,-10
305.0,-8,0,-2,5,1,-1,9,-5,-8,-17,-11,-10
306.0,-8,0,-2,6,1,-1,8,-4,-7,-17,-11,-10
307.0,-8,0,-2,6,0,-1,8,-4,-6,-16,-11,-10
308.0,-8,0,-2,6,0,-1,8,-3,-6,-16,-11,-10
309.0,-8,0,-2,6,0,-1,8,-3,-6,-16,-11,-10
310.0,-8,0,-1,6,0,-1,8,-2,-6,-15,-11,-10
311.0,-8,0,-1,7,0,-1,8,-2,-6,-15,-11,-10
312.0,-7,0,-1,7,-1,-1,8,-2,-5,-15,-11,-10
313.0,-7,0,-1,7,-1,-1,8,-2,-5,-14,-11,-10
314.0,-7,0,-1,7,-1,-1,8,-1,-4,-14,-11,-10
315.0,-7,0,-1,7,-1,-1,8,-1,-4,-14,-11,-9
316.0,-6,0,-1,7,-1,-1,8,0,-4,-13,-11,-9
317.0,-6,0,-1,7,-1,-1,8,0,-3,-13,-11,-9
318.0,-6,0,-1,7,-1,-1,8,0,-3,-12,-11,-9
319.0,-6,0,-1,7,-1,-1,8,1,-3,-12,-11,-9
320.0,-6,0,-1,7,-1,-1,7,1,-2,-12,-11,-9
321.0,-6,0,-1,7,-1,-1,7,1,-2,-12,-11,-9
322.0,-6,0,-1,7,-1,-1,7,1,-2,-11,-11,-9
323.0,-6,0,-1,7,-1,-1,7,1,-2,-11,-10,-9
324.0,-6,0,-1,7,-1,-1,7,2,-2,-11,-10,-9
325.0,-6,0,-1,8,-1,-1,7,2,-2,-10,-10,-9
326.0,-7,0,-1,8,-1,-1,7,2,-2,-10,-10,-9
327.0,-7,0,-1,8,-1,-1,7,2,-2,-10,-10,-9
328.0,-6,0,-1,8,-1,-1,7,2,-2,-10,-10,-9
329.0,-6,0,-1,8,-1,-1,7,2,-1,-10,-10,-9
330.0,-6,0,-1,8,-1,-1,7,2,-1,-9,-10,-9
331.0,-6,0,-1,8,-1,-1,7,2,-1,-9,-10,-9
332.0,-6,0,-1,8,-1,-1,7,2,-1,-9,-10,-9
333.0,-6,0,-1,8,-1,-1,7,3,-1,-9,-10,-9
334.0,-6,0,-1,7,-1,-1,7,3,-1,-9,-10,-9
335.0,-6,1,-1,7,-1,-1,7,3,-1,-9,-10,-9
336.0,-6,1,-1,7,-1,-1,7,3,-1,-8,-10,-9
337.0,-6,1,-1,7,-1,-1,7,3,-1,-8,-10,-9
338.0,-6,1,-1,7,-1,-1,7,3,-1,-8,-10,-9
339.0,-5,1,-1,7,-1,-1,8,3,0,-8,-9,-9
340.0,-5,1,-1,7,-1,-1,8,3,0,-8,-9,-9
341.0,-5,1,-1,7,-1,-1,8,3,0,-8,-9,-9
342.0,-5,1,-1,7,-1,-1,8,3,0,-8,-9,-9
343.0,-5,2,-1,7,-1,-1,8,4,0,-7,-9,-9
344.0,-5,2,-1,7,-1,-1,8,4,0,-7,-9,-9
345.0,-5,2,-1,7,-1,-1,8,4,0,-7,-9,-9
346.0,-5,2,-1,7,-1,-1,8,3,0,-7,-9,-9
347.0,-5,1,-1,7,-1,-1,8,3,0,-7,-9,-9
348.0,-6,1,-1,7,-1,-1,8,3,-1,-7,-9,-9
349.0,-6,1,-1,7,-1,-1,8,3,-1,-7,-9,-9
350.0,-6,1,-1,7,-1,-1,8,3,-1,-7,-9,-9
351.0,-6,1,-1,7,-1,-1,8,3,-1,-7,-9,-9
352.0,-6,0,-1,7,-1,-1,8,3,-1,-7,-9,-9
353.0,-6,0,-1,7,-1,-1,8,3,-1,-7,-9,-10
354.0,-6,0,-1,7,-1,-1,8,3,-1,-7,-9,-10
355.0,-6,0,-1,7,-1,-1,8,3,-1,-7,-9,-10
356.0,-6,-1,-1,7,-1,-1,8,3,-1,-7,-9,-10
357.0,-6,-1,-1,7,-1,-1,8,3,-1,-7,-9,-10
358.0,-7,-1,-1,8,-1,-1,8,3,-1,-7,-9,-10
359.0,-7,-1,-1,8,-1,-1,8,3,-1,-7,-9,-10
360.0,-7,-1,-1,8,-1,-1,8,3,-1,-7,-9,-10
361.0,-7,-1,-1,8,-1,-1,8,3,-1,-7,-9,-10
362.0,-7,-1,-1,8,-1,-1,8,2,-1,-7,-9,-10
363.0,-7,-1,-1,8,-1,-1,8,2,-1,-7,-9,-10
364.0,-7,-1,-1,8,-1,-1,8,3,-1,-7,-9,-10
365.0,-8,-1,-1,8,-1,-1,8,3,-1,-7,-9,-10
366.0,-8,-1,-1,8,-1,-1,8,3,-1,-7,-9,-10
367.0,-8,-1,-1,8,-1,-1,8,3,-1,-7,-9,-10
368.0,-8,-1,-1,8,-1,-1,8,3,-1,-7,-9,-10
369.0,-8,-1,-1,8,-1,-1,8,3,-1,-7,-9,-10
370.0,-8,-1,-1,8,-2,-1,8,3,-1,-7,-9,-10
371.0,-8,-1,-1,8,-2,-1,9,3,-1,-7,-9,-10
372.0,-8,-1,-1,8,-1,-1,9,3,-1,-7,-9,-10
373.0,-7,-1,-1,8,-1,-1,9,3,-1,-7,-9,-10
374.0,-7,-1,-1,8,-1,-2,9,3,-1,-7,-9,-10
375.0,-7,-1,-1,8,-1,-2,9,3,-1,-7,-9,-10
376.0,-7,-1,-1,8,-1,-2,9,3,-1,-7,-9,-10
377.0,-7,-1,-1,8,-1,-2,9,3,-1,-7,-9,-10
378.0,-7,-1,-1,8,-1,-2,9,3,-1,-7,-9,-10
379.0,-7,-1,-1,8,-1,-2,8,3,-1,-7,-9,-10
380.0,-7,-1,-1,8,-1,-2,8,3,-1,-7,-9,-10
381.0,-7,-1,-1,8,-1,-2,8,3,-1,-7,-9,-10
382.0,-7,-1,-1,8,-1,-2,8,3,-1,-7,-9,-10
383.0,-7,-1,-1,8,-1,-2,8,3,-1,-7,-9,-10
384.0,-7,-1,-1,8,-1,-2,8,3,-1,-7,-10,-10
385.0,-7,-1,-1,8,-1,-2,8,3,-1,-7,-10,-10
386.0,-7,-1,-1,8,-1,-2,8,3,-1,-7,-10,-10
387.0,-7,-1,-1,8,-1,-2,9,3,-1,-7,-10,-10
388.0,-7,-1,-1,8,-1,-2,9,3,-1,-7,-10,-10
389.0,-7,-1,-1,8,-1,-1,9,3,-1,-7,-10,-10
390.0,-7,-1,-1,8,-1,-1,9,3,-1,-7,-10,-10
391.0,-7,-1,-1,8,-1,-1,9,3,-1,-7,-9,-10
392.0,-7,0,-1,8,-1,-1,9,3,0,-7,-9,-10
393.0,-7,0,-1,8,-1,-1,9,4,0,-7,-9,-10
394.0,-7,0,-1,8,-1,-1,9,4,0,-7,-9,-10
395.0,-7,0,-1,8,-1,-1,9,4,0,-7,-9,-10
396.0,-7,0,-1,8,-1,-1,9,4,0,-7,-9,-10
397.0,-7,0,-1,8,-1,-1,9,4,0,-7,-9,-10
398.0,-7,0,-1,8,-1,-1,9,4,0,-7,-9,-10
399.0,-7,0,-1,8,-1,-1,9,4,0,-7,-9,-10
400.0,-7,0,-1,8,-1,-1,10,4,0,-7,-9,-9
401.0,-7,0,-1,8,-1,-1,10,4,0,-7,-9,-9
402.0,-7,0,-1,8,-1,-1,10,4,1,-7,-9,-9
403.0,-7,0,-1,8,-1,-1,10,4,1,-7,-9,-9
404.0,-7,0,-1,8,-1,-1,10,4,1,-7,-9,-9
405.0,-7,0,-1,8,-1,-1,10,5,1,-7,-9,-9
406.0,-7,0,-1,8,-1,-1,10,5,1,-7,-9,-9
407.0,-7,0,-1,8,-1,-1,10,5,1,-7,-9,-9
408.0,-7,0,-1,8,-2,-1,10,5,1,-7,-9,-9
409.0,-7,0,-1,8,-2,-1,10,5,1,-7,-9,-9
410.0,-7,0,-1,8,-2,-1,10,5,1,-7,-9,-10
411.0,-7,0,-1,8,-2,-1,10,5,1,-7,-9,-10
412.0,-7,0,-1,8,-2,-1,10,5,1,-7,-9,-10
413.0,-7,0,-1,8,-2,-1,10,5,0,-7,-9,-10
414.0,-7,0,-1,8,-2,-1,10,5,0,-7,-9,-10
415.0,-7,0,-1,8,-2,-1,10,5,0,-7,-9,-10
416.0,-7,0,-1,8,-2,-1,10,5,0,-7,-9,-10
417.0,-7,0,-1,8,-2,-1,10,5,0,-7,-9,-10
418.0,-7,0,-1,8,-2,-1,10,5,0,-7,-9,-10
419.0,-7,0,-1,8,-2,-1,10,5,0,-7,-9,-10
420.0,-7,-1,-1,8,-2,-1,10,5,0,-7,-9,-10
421.0,-7,-1,-1,8,-2,-1,10,5,0,-7,-9,-10
422.0,-7,-1,-1,8,-2,-1,10,5,0,-7,-9,-10
423.0,-7,-1,-1,8,-2,-1,10,5,0,-7,-9,-10
424.0,-7,-1,-1,8,-2,-1,10,5,0,-8,-9,-10
425.0,-7,-1,-1,8,-2,-1,10,5,0,-8,-9,-10
426.0,-7,-1,-1,8,-2,-1,10,5,0,-8,-9,-10
427.0,-7,-1,-1,8,-2,-1,10,5,-1,-8,-10,-10
428.0,-7,-1,-1,8,-2,-1,10,5,-1,-8,-10,-10
429.0,-7,-1,-1,8,-2,-1,10,5,-1,-8,-10,-10
430.0,-7,-1,-1,8,-2,-1,10,5,-1,-8,-10,-10
431.0,-7,-1,-1,8,-2,-1,10,5,-2,-8,-10,-10
432.0,-8,-1,-1,8,-2,-1,10,5,-2,-8,-10,-10
433.0,-8,-1,-1,8,-2,-1,10,5,-2,-8,-10,-10
434.0,-8,-2,-1,8,-2,-1,10,5,-2,-8,-10,-10
435.0,-8,-2,-1,9,-2,-1,10,4,-3,-9,-10,-10
436.0,-8,-2,-1,9,-2,-2,10,4,-3,-9,-10,-10
437.0,-8,-2,-1,9,-2,-2,10,4,-3,-9,-10,-10
438.0,-8,-2,-1,9,-2,-2,9,4,-4,-9,-10,-11
439.0,-8,-2,-1,9,-2,-2,9,4,-4,-9,-10,-11
440.0,-8,-3,-1,9,-1,-2,9,3,-5,-10,-10,-11
441.0,-8,-3,-1,9,-1,-2,9,3,-5,-10,-10,-11
442.0,-8,-3,-2,9,-1,-2,9,3,-5,-10,-11,-11
443.0,-8,-3,-2,9,-1,-2,9,3,-6,-10,-11,-11
444.0,-8,-3,-2,9,-1,-2,9,3,-6,-10,-11,-11
445.0,-8,-3,-2,9,-1,-2,8,3,-6,-10,-11,-11
446.0,-8,-4,-2,9,-1,-2,8,2,-6,-11,-11,-11
447.0,-8,-4,-2,9,-1,-3,8,2,-6,-11,-11,-11
448.0,-8,-4,-2,10,-1,-3,8,2,-6,-11,-11,-12
449.0,-8,-4,-2,10,-1,-3,8,2,-7,-11,-11,-12
450.0,-8,-4,-2,10,-1,-3,8,2,-7,-12,-12,-12
451.0,-8,-4,-2,10,-1,-3,8,2,-8,-12,-12,-12
452.0,-8,-5,-2,10,-1,-3,8,2,-8,-12,-12,-12
453.0,-8,-5,-2,10,-1,-3,8,2,-8,-12,-12,-12
454.0,-8,-5,-2,10,-1,-4,8,1,-8,-13,-12,-12
455.0,-8,-5,-2,10,-1,-4,8,1,-9,-13,-12,-12
456.0,-8,-5,-2,10,-1,-4,8,1,-9,-13,-12,-12
457.0,-8,-5,-2,10,-1,-4,8,1,-9,-13,-13,-12
458.0,-8,-5,-2,10,-1,-4,8,1,-10,-14,-13,-12
459.0,-8,-5,-3,10,-1,-4,8,1,-10,-14,-13,-12
460.0,-8,-5,-3,10,-1,-4,8,1,-10,-14,-13,-12
461.0,-8,-5,-3,10,-1,-4,8,1,-10,-14,-13,-12
462.0,-8,-5,-3,10,0,-4,8,0,-11,-15,-13,-12
463.0,-8,-6,-3,10,0,-5,8,0,-11,-15,-13,-12
464.0,-8,-6,-3,10,0,-5,8,0,-11,-15,-13,-12
465.0,-8,-6,-3,11,0,-5,8,0,-11,-15,-13,-11
466.0,-8,-6,-3,11,0,-5,8,0,-12,-15,-13,-11
467.0,-8,-6,-3,11,0,-5,8,0,-12,-16,-13,-11
468.0,-8,-6,-3,11,0,-5,8,0,-12,-16,-13,-11
469.0,-8,-6,-3,11,0,-5,8,0,-12,-16,-14,-11
470.0,-8,-6,-4,11,0,-5,8,0,-13,-16,-14,-11
471.0,-8,-6,-4,11,0,-5,8,0,-13,-16,-14,-11
472.0,-8,-6,-4,11,0,-5,7,0,-13,-16,-14,-11
473.0,-8,-6,-4,11,0,-5,7,-1,-13,-16,-14,-11
474.0,-8,-6,-4,11,0,-6,7,-1,-14,-17,-14,-11
475.0,-7,-6,-4,11,0,-6,7,-1,-14,-17,-14,-10
476.0,-7,-6,-4,11,0,-6,7,-1,-14,-17,-14,-10
477.0,-7,-6,-4,11,1,-6,6,-1,-14,-17,-14,-10
478.0,-7,-6,-5,11,1,-6,6,-1,-14,-17,-14,-10
479.0,-7,-6,-5,11,1,-6,6,-1,-14,-17,-14,-10
480.0,-7,-6,-5,11,1,-6,6,-1,-14,-17,-14,-10
481.0,-6,-6,-5,11,1,-6,5,-1,-14,-17,-14,-9
482.0,-6,-5,-5,11,1,-6,5,-1,-14,-17,-13,-9
483.0,-6,-5,-5,10,1,-6,5,-2,-14,-17,-13,-9
484.0,-6,-5,-5,10,1,-6,5,-2,-14,-17,-13,-9
485.0,-5,-5,-5,10,1,-6,5,-2,-13,-17,-13,-8
486.0,-5,-4,-5,10,1,-6,5,-2,-13,-17,-13,-8
487.0,-5,-4,-5,10,1,-6,5,-2,-13,-17,-13,-8
488.0,-5,-4,-5,10,2,-6,4,-2,-13,-17,-13,-8
489.0,-5,-4,-5,10,2,-6,4,-2,-13,-17,-12,-7
490.0,-4,-3,-5,9,2,-6,4,-2,-13,-16,-12,-7
491.0,-4,-3,-5,9,2,-6,4,-2,-13,-16,-12,-7
492.0,-4,-3,-5,9,2,-6,4,-2,-12,-16,-12,-7
493.0,-4,-3,-5,9,2,-6,4,-2,-12,-16,-12,-6
494.0,-3,-3,-5,9,2,-6,4,-2,-12,-16,-11,-6
495.0,-3,-3,-5,9,2,-6,3,-2,-12,-16,-11,-6
496.0,-3,-2,-5,9,2,-5,3,-2,-12,-15,-11,-5
497.0,-3,-2,-5,8,3,-5,3,-1,-11,-15,-11,-5
498.0,-3,-2,-5,8,3,-5,3,-1,-11,-15,-10,-5
499.0,-3,-2,-5,8,3,-5,3,-1,-11,-15,-10,-5
500.0,-3,-2,-5,8,3,-5,3,-1,-11,-14,-10,-4
501.0,-3,-1,-5,8,3,-5,2,-1,-10,-14,-9,-4
502.0,-2,-1,-5,8,3,-5,2,-1,-10,-14,-9,-4
503.0,-2,-1,-5,8,3,-5,2,-1,-10,-14,-9,-4
504.0,-2,-1,-5,7,3,-5,2,-1,-9,-13,-9,-3
505.0,-2,0,-5,7,3,-5,2,-1,-9,-13,-8,-3
506.0,-2,0,-5,7,3,-4,2,-1,-9,-12,-8,-3
507.0,-2,0,-5,7,3,-4,2,-1,-9,-12,-8,-3
508.0,-1,0,-5,7,3,-4,2,-1,-8,-12,-7,-2
509.0,-1,1,-5,6,3,-4,2,0,-8,-11,-7,-2
510.0,-1,1,-5,6,3,-4,2,0,-7,-11,-7,-2
511.0,-1,1,-5,6,3,-4,2,0,-7,-11,-7,-2
512.0,0,2,-5,6,3,-4,2,0,-7,-10,-6,-2
513.0,0,2,-5,6,3,-4,2,0,-6,-10,-6,-1
514.0,0,2,-5,5,3,-3,2,0,-6,-9,-6,-1
515.0,0,2,-5,5,3,-3,2,0,-6,-9,-6,-1
516.0,0,3,-5,5,3,-3,2,1,-6,-9,-5,-1
517.0,0,3,-5,5,3,-3,2,1,-5,-8,-5,-1
518.0,0,3,-5,5,3,-3,2,1,-5,-8,-5,-1
519.0,0,3,-4,4,3,-3,2,1,-5,-8,-4,-1
520.0,0,3,-4,4,3,-2,2,1,-4,-7,-4,-1
521.0,0,3,-4,4,3,-2,1,1,-4,-7,-4,0
522.0,0,4,-4,4,3,-2,1,1,-4,-6,-4,0
523.0,0,4,-4,4,3,-2,1,1,-3,-6,-4,0
524.0,0,4,-4,4,3,-2,1,1,-3,-6,-3,0
525.0,0,4,-4,4,3,-2,1,1,-3,-5,-3,0
526.0,0,4,-4,4,3,-2,1,1,-2,-5,-3,0
527.0,0,4,-4,3,3,-2,1,1,-2,-5,-3,0
528.0,0,4,-4,3,3,-1,1,1,-2,-4,-2,0
529.0,0,4,-3,3,3,-1,1,1,-1,-4,-2,0
530.0,0,4,-3,3,3,-1,1,2,-1,-4,-2,0
531.0,0,4,-3,3,3,-1,1,2,-1,-4,-2,0
532.0,0,5,-3,3,3,-1,1,2,-1,-4,-2,0
533.0,0,5,-3,3,3,-1,1,2,0,-4,-2,0
534.0,0,5,-3,3,3,-1,1,2,0,-4,-2,0
535.0,0,5,-3,3,3,-1,1,2,0,-3,-2,0
536.0,0,5,-3,3,3,0,1,2,0,-3,-2,0
537.0,0,5,-2,3,3,0,1,2,1,-3,-2,0
538.0,0,5,-2,3,3,0,1,2,1,-3,-2,0
539.0,0,5,-2,2,3,0,1,2,1,-2,-2,0
540.0,0,6,-2,2,3,0,1,2,1,-2,-2,0
541.0,0,6,-2,2,3,0,1,2,1,-2,-2,0
542.0,0,6,-2,2,3,0,1,2,1,-2,-2,0
543.0,0,6,-2,2,3,1,1,2,2,-2,-1,0
544.0,0,6,-2,2,3,1,1,1,2,-1,-1,0
545.0,0,6,-2,2,3,1,1,1,2,-1,-1,0
546.0,0,6,-2,2,3,1,1,1,2,-1,-1,0
547.0,0,6,-2,2,3,1,1,1,2,-1,-1,0
548.0,0,6,-2,2,2,1,1,1,2,-1,-1,0
549.0,0,6,-2,2,2,1,1,1,2,-1,-1,0
550.0,0,6,-2,2,2,1,1,1,2,-1,-1,0
551.0,-1,6,-2,2,2,1,1,1,2,-1,-1,0
552.0,-1,6,-1,2,2,1,1,1,2,0,-1,0
553.0,-1,6,-1,2,2,1,1,1,2,0,-1,0
554.0,-1,6,-1,2,2,1,1,1,2,0,-1,0
555.0,-1,6,-1,2,2,1,1,1,2,0,-1,0
556.0,-1,6,-1,1,2,1,1,1,2,0,-1,-1
557.0,-1,6,-1,1,2,1,1,1,2,0,-1,-1
558.0,-1,6,-1,1,2,1,1,1,2,0,-1,-1
559.0,-1,7,-1,1,2,2,1,1,2,0,-1,-1
560.0,-1,7,0,1,2,2,1,0,2,0,-1,-1
561.0,-1,7,0,1,2,2,1,0,2,0,-1,-1
562.0,-1,7,0,1,1,2,1,0,2,0,-1,-1
563.0,-1,7,0,1,1,2,1,0,2,0,-1,-1
564.0,-1,7,0,1,1,2,1,0,2,0,-1,-1
565.0,-1,7,0,1,1,2,1,0,3,0,-1,-1
566.0,-1,7,0,1,1,2,1,0,3,1,-1,-1
567.0,-1,7,0,1,1,2,1,0,3,1,-1,0
568.0,-1,7,1,1,1,3,1,0,3,1,-1,0
569.0,-1,7,1,1,1,3,1,0,3,1,-1,0
570.0,-1,7,1,1,1,3,1,0,3,1,-1,0
571.0,-1,8,1,1,1,3,1,0,2,1,-1,0
572.0,-1,8,1,1,1,3,1,0,2,1,-1,0
573.0,-1,8,1,1,1,3,1,0,2,1,-1,0
574.0,-1,8,1,1,1,3,1,0,2,1,-1,0
575.0,-1,8,1,1,1,3,1,0,2,1,-1,0
576.0,-1,8,1,1,0,3,0,0,2,1,-1,0
577.0,-1,8,1,1,0,3,0,0,2,1,-1,0
578.0,-1,8,2,1,0,3,0,0,2,1,-1,0
579.0,-2,8,2,1,0,3,0,0,2,1,-1,0
580.0,-2,8,2,1,0,4,0,0,2,1,-1,0
581.0,-2,8,2,1,0,4,0,0,2,1,-1,0
582.0,-2,8,2,1,0,4,0,0,2,1,-1,0
583.0,-2,8,2,1,0,4,1,0,2,1,-1,0
584.0,-2,8,2,1,0,4,1,-1,2,1,-1,0
585.0,-2,8,2,1,0,4,1,-1,2,1,-1,-1
586.0,-2,8,2,1,0,4,1,-1,2,1,-1,-1
587.0,-2,8,2,1,0,4,1,-1,2,1,-1,-1
588.0,-2,8,2,1,-1,4,1,-1,1,1,-1,-1
589.0,-2,8,3,1,-1,4,1,-1,1,1,-1,-1
590.0,-2,8,3,1,-1,4,1,-1,1,1,-1,-1
591.0,-2,8,3,1,-1,4,0,-1,1,1,-1,-1
592.0,-2,8,3,1,-1,4,0,-1,1,1,-1,-1
593.0,-2,8,3,1,-1,4,0,-1,1,1,-1,-1
594.0,-2,8,3,1,-1,4,0,-1,1,1,-1,-1
595.0,-2,8,3,1,-1,4,0,-1,1,1,-1,-1
596.0,-2,8,3,1,-1,4,0,-1,1,1,-1,-1
597.0,-2,8,3,1,-1,4,0,-1,1,1,-1,-1
598.0,-2,8,3,1,-1,4,0,-1,2,1,-1,-1
599.0,-2,8,3,1,-1,4,0,-1,2,1,-1,-1
600.0,-2,8,3,1,-1,4,0,-1,2,1,-1,-1
601.0,-2,8,3,1,-1,4,0,-1,2,1,-1,-1
602.0,-2,8,3,1,-1,4,0,-1,2,1,-1,-1
603.0,-2,8,3,1,-1,5,0,-1,2,1,-1,-1
604.0,-2,8,3,1,-1,5,0,-1,2,1,-1,-1
605.0,-2,8,3,1,-1,5,0,-1,2,1,-1,-1
606.0,-2,8,3,1,-1,5,0,-1,2,1,-1,-1
607.0,-2,8,3,1,-1,5,0,-1,2,1,-1,-1
608.0,-2,8,3,1,-1,5,0,-1,2,1,-1,0
609.0,-2,8,3,1,-1,5,0,-1,2,1,-1,0
610.0,-2,8,3,1,-1,5,0,-1,2,1,-1,0
611.0,-2,8,3,1,-1,5,0,-1,2,1,-1,0
612.0,-2,8,3,1,-1,5,1,-1,2,1,-1,0
613.0,-1,8,3,1,-1,5,1,-1,2,1,-1,0
614.0,-1,8,3,1,-1,5,1,-1,2,1,-1,0
615.0,-1,8,3,1,-1,5,1,-1,2,1,-1,0
616.0,-1,9,3,1,-1,5,1,-1,2,1,-1,0
617.0,-1,9,3,1,-1,5,1,-1,2,1,-1,0
618.0,-1,9,3,1,-1,5,1,-1,2,1,-1,0
619.0,-1,9,3,1,-1,5,1,-1,2,1,-1,0
620.0,-1,9,3,1,-1,5,1,-1,2,1,-1,0
621.0,-1,9,3,1,-1,5,1,-1,2,1,-1,0
622.0,-1,9,3,1,-1,5,1,-1,2,1,-1,0
623.0,-1,9,3,1,-1,5,1,-1,2,1,-1,0
624.0,-1,9,3,1,-1,5,1,-1,1,1,-1,0
625.0,-1,9,3,1,-1,5,1,-1,1,1,-1,0
626.0,-1,9,3,1,-1,5,1,-1,1,1,-1,0
627.0,-1,9,3,1,-1,5,1,-1,1,1,-1,0
628.0,-1,9,3,1,-1,5,1,-1,1,1,-1,0
629.0,-1,9,3,1,-1,5,1,-1,1,1,-1,0
630.0,-1,9,4,1,-1,5,1,-1,1,1,-1,0
631.0,-1,9,4,1,-1,5,1,-1,1,1,-1,0
632.0,-1,9,4,1,-1,5,1,-1,1,1,-1,0
633.0,-1,9,4,1,-1,5,1,-1,1,1,-1,0
634.0,-2,9,4,1,-1,5,1,-1,1,1,-1,0
635.0,-2,9,4,1,-1,5,1,-1,1,1,-1,0
636.0,-2,9,4,1,-1,5,1,-1,1,1,-1,0
637.0,-2,9,4,1,-1,5,1,-1,1,1,-1,0
638.0,-2,9,4,1,-1,5,1,-1,1,1,-1,0
639.0,-2,9,4,1,-1,5,1,-1,1,1,-1,0
640.0,-2,8,4,1,-1,5,1,-1,1,1,-1,0
641.0,-2,8,4,1,-1,5,1,-1,1,1,-1,0
642.0,-2,8,4,1,-1,5,1,-1,1,0,-1,0
643.0,-2,8,4,1,-1,5,1,-1,1,0,-1,0
644.0,-2,8,4,1,-1,5,1,-1,1,0,-1,0
645.0,-2,8,4,1,-1,5,1,-1,1,0,-1,0
646.0,-2,8,4,1,-1,5,1,-1,1,0,-1,0
647.0,-3,8,4,1,-1,5,1,-1,1,0,-1,0
648.0,-3,8,4,1,-1,5,1,-1,1,0,-1,0
649.0,-3,8,4,1,-1,5,0,-1,1,0,-1,0
650.0,-3,8,4,1,-1,5,0,-1,1,0,-1,0
651.0,-3,8,4,1,-1,5,0,-1,1,0,-1,0
652.0,-3,8,4,1,-2,5,0,-1,1,0,-1,0
653.0,-3,8,4,1,-2,5,0,-1,1,0,-1,0
654.0,-3,8,4,1,-2,5,0,-1,1,0,-1,0
655.0,-3,8,4,1,-2,5,0,-1,1,0,-1,0
656.0,-3,8,4,1,-2,5,0,-1,1,0,-1,0
657.0,-3,8,4,1,-2,5,0,-1,1,0,-1,0
658.0,-3,8,4,1,-2,5,0,-1,1,0,-1,0
659.0,-3,8,4,1,-2,5,0,-1,1,0,-1,0
660.0,-3,8,4,1,-2,5,0,-1,1,0,-1,0
661.0,-3,8,4,1,-2,5,0,-1,1,0,-1,0
662.0,-3,8,4,1,-2,5,0,-1,1,0,-1,0
663.0,-3,8,4,1,-2,5,0,-1,1,0,-1,0
664.0,-4,8,4,1,-2,5,0,-1,1,0,-1,0
665.0,-4,8,4,1,-2,5,0,-1,1,0,-1,0
666.0,-3,8,4,1,-2,5,0,-1,1,0,-1,0
667.0,-3,8,4,1,-2,5,0,-1,1,0,-1,0
668.0,-3,8,4,1,-2,5,0,-1,1,0,-1,0
669.0,-3,8,4,1,-2,5,0,-1,1,0,-1,0
670.0,-3,8,4,1,-2,5,0,-1,1,0,-1,0
671.0,-3,8,4,1,-2,5,0,-1,1,0,-1,0
672.0,-3,8,4,1,-2,5,0,-1,1,0,-1,0
673.0,-2,8,4,1,-2,5,0,-1,1,0,-1,0
674.0,-2,8,4,1,-2,5,0,-1,1,0,-1,0
675.0,-2,8,4,1,-2,5,0,-1,1,0,-1,0
676.0,-2,8,4,1,-2,5,0,-1,1,0,-1,0
677.0,-2,9,4,1,-2,5,0,-1,1,0,-1,0
678.0,-2,9,4,1,-2,5,0,-1,1,0,-1,0
679.0,-2,9,4,1,-2,5,0,-1,1,0,-1,0
680.0,-2,9,4,1,-2,5,0,-1,1,0,-1,0
681.0,-2,9,4,1,-2,5,0,-1,1,0,-1,0
682.0,-2,8,4,1,-2,5,0,-1,1,0,-1,0
683.0,-2,8,4,1,-2,5,0,-1,1,0,-1,0
684.0,-2,8,4,1,-2,5,0,-1,1,0,-1,0
685.0,-2,8,4,1,-2,5,0,-1,1,0,-1,0
686.0,-2,8,4,1,-2,5,0,-1,0,0,-1,0
687.0,-3,8,4,1,-2,5,1,-1,0,0,-1,0
688.0,-3,8,4,1,-2,5,1,-1,0,0,-1,0
689.0,-3,8,4,1,-2,5,1,-1,0,0,-1,0
690.0,-3,8,4,1,-2,5,1,-1,0,0,-1,0
691.0,-3,8,4,1,-2,5,1,-1,0,0,-1,0
692.0,-3,8,4,1,-2,5,1,-1,0,0,-1,0
693.0,-3,8,4,1,-2,5,1,-1,0,0,-1,0
694.0,-3,8,4,1,-2,5,1,-1,0,0,-1,0
695.0,-3,8,4,1,-2,5,1,-1,0,0,-1,0
696.0,-3,8,4,1,-2,5,1,5,0,0,-1,0
697.0,5,7,1,1,1,3,0,22,-5,-1,-2,-2
698.0,17,1,-3,1,3,1,0,44,-9,-2,-2,-5
699.0,19,-1,-5,0,6,-1,-1,52,-10,-3,-3,-7
700.0,16,0,-6,0,7,-1,-1,45,-6,-3,-3,-6
701.0,13,2,-5,0,6,-1,0,36,-3,-3,-3,-5
702.0,7,5,-4,1,4,0,0,24,0,-2,-2,-3
703.0,1,7,-2,1,3,1,0,13,2,-2,-2,-1
704.0,-2,8,-1,1,2,2,1,0,4,-1,-2,0
705.0,-5,9,0,1,2,2,1,-6,4,-1,-2,0
706.0,-7,10,1,1,1,3,2,-9,4,-1,-1,0
707.0,-8,11,2,1,0,4,2,-12,4,-1,-1,1
708.0,-9,12,4,1,-1,5,2,-14,4,0,-1,1
709.0,-9,12,4,1,-2,5,2,-14,4,0,-1,1
710.0,-9,12,5,1,-2,6,2,-15,3,0,-1,1
711.0,-9,12,5,1,-3,6,2,-14,3,0,0,1
712.0,-9,11,6,1,-3,6,2,-13,2,0,0,1
713.0,-8,11,6,1,-3,6,2,-13,2,0,0,1
714.0,-8,11,6,1,-4,7,2,-12,2,0,0,1
715.0,-7,11,7,1,-4,7,2,-11,2,0,0,1
716.0,-6,11,7,1,-4,7,2,-9,1,0,0,1
717.0,-6,11,7,1,-4,7,2,-8,1,0,0,0
718.0,-6,11,7,1,-4,7,2,-8,1,0,0,0
719.0,-5,11,7,1,-4,7,2,-7,1,0,0,0
720.0,-4,10,7,1,-4,7,2,-5,1,0,0,0
721.0,-4,10,7,1,-4,7,2,-5,1,0,0,0
722.0,-4,10,7,1,-4,7,2,-4,0,0,0,0
723.0,-3,10,7,1,-4,7,2,-4,0,0,0,0
724.0,-3,10,7,1,-4,7,2,-3,0,0,0,0
725.0,-3,10,7,1,-4,7,2,-3,0,0,0,0
726.0,-3,10,7,1,-4,7,1,-3,0,0,0,0
727.0,-3,10,7,1,-3,7,1,-2,-1,0,0,0
728.0,-3,10,6,1,-3,7,1,-2,-1,0,0,0
729.0,-2,10,6,1,-3,7,1,-2,-1,0,0,0
730.0,-2,10,6,1,-3,7,1,-2,-1,0,0,0
731.0,-2,10,6,1,-3,7,1,-2,-1,0,0,0
732.0,-2,10,6,1,-3,7,1,-2,-1,0,0,0
733.0,-2,10,6,1,-3,7,1,-2,-2,-1,0,0
734.0,-2,10,6,1,-3,7,1,-2,-2,-1,0,0
735.0,-2,10,6,1,-3,7,0,-2,-2,-1,0,0
736.0,-2,10,6,1,-3,7,0,-2,-2,-1,0,0
737.0,-2,10,6,1,-3,7,0,-2,-2,-1,-1,0
738.0,-2,10,6,1,-3,7,0,-2,-2,-1,-1,0
739.0,-2,10,6,1,-3,7,0,-2,-3,-1,-1,0
740.0,-2,10,6,1,-3,7,0,-2,-3,-1,-1,0
741.0,-2,10,6,1,-3,7,0,-2,-3,-1,-1,0
742.0,-2,10,6,1,-3,7,0,-2,-3,-1,-1,0
743.0,-2,10,6,1,-3,7,0,-2,-3,-1,-1,0
744.0,-2,10,6,1,-3,7,0,-2,-3,-1,-1,0
745.0,-2,10,6,1,-3,7,0,-2,-3,-1,-1,0
746.0,-2,11,6,1,-2,7,0,-2,-3,-1,0,0
747.0,-1,11,6,1,-2,7,-1,-2,-3,-1,0,0
748.0,-1,11,6,1,-2,7,-1,-2,-3,-1,0,0
749.0,-1,12,6,1,-2,7,-1,-2,-3,-1,0,0
750.0,0,12,6,0,-2,7,-2,-2,-3,-1,0,0
751.0,0,13,6,0,-2,7,-3,-2,-2,0,0,1
752.0,1,13,6,0,-2,7,-3,-2,-2,0,0,1
753.0,1,14,6,0,-2,7,-3,-2,-2,0,1,2
754.0,1,14,6,-1,-2,8,-4,-2,-2,0,1,2
755.0,1,15,6,-1,-1,8,-5,-2,-2,1,1,3
756.0,2,15,6,-1,-1,8,-5,-2,-2,1,2,3
757.0,2,16,6,-1,-1,8,-5,-2,-2,1,2,4
758.0,3,17,6,-2,-1,8,-7,-2,-3,2,2,5
759.0,4,18,6,-2,-1,9,-7,-2,-3,2,3,5
760.0,4,18,6,-3,-1,9,-8,-2,-4,2,3,6
761.0,5,18,6,-3,0,9,-9,-3,-4,2,4,6
762.0,6,19,6,-4,0,9,-10,-3,-5,3,4,8
763.0,6,20,6,-4,0,9,-10,-3,-5,3,5,8
764.0,7,20,6,-4,0,10,-11,-4,-6,4,5,9
765.0,8,21,5,-5,1,10,-12,-4,-6,4,6,10
766.0,10,21,5,-6,1,10,-13,-5,-7,5,7,11
767.0,11,22,5,-6,2,10,-14,-5,-7,5,7,12
768.0,11,22,5,-7,2,10,-15,-5,-8,5,8,13
769.0,13,23,4,-7,3,10,-16,-6,-8,6,8,14
770.0,15,23,4,-8,3,10,-17,-6,-9,6,10,16
771.0,15,24,4,-9,3,10,-18,-7,-10,7,10,17
772.0,17,24,3,-9,4,10,-19,-7,-10,7,11,18
773.0,18,25,3,-10,4,10,-21,-8,-11,8,12,20
774.0,20,25,2,-11,5,10,-22,-8,-11,9,14,22
775.0,22,26,1,-12,6,10,-23,-9,-12,10,15,24
776.0,22,26,1,-12,7,10,-24,-9,-12,10,15,25
777.0,25,27,0,-13,8,10,-26,-10,-12,11,17,27
778.0,26,28,0,-14,9,10,-27,-11,-12,12,18,29
779.0,27,28,-1,-15,9,10,-27,-11,-12,12,19,30
780.0,28,28,-1,-15,10,10,-28,-11,-12,13,20,31
781.0,30,29,-2,-17,11,10,-29,-12,-11,14,22,33
782.0,31,30,-2,-17,12,10,-30,-13,-11,14,23,34
783.0,31,30,-2,-18,12,10,-31,-13,-11,15,23,36
784.0,32,30,-3,-18,13,10,-31,-13,-10,15,25,37
785.0,34,31,-3,-19,14,10,-32,-13,-9,16,26,39
786.0,34,31,-4,-20,15,9,-33,-14,-8,17,27,40
787.0,35,31,-4,-20,16,9,-33,-14,-7,17,28,40
788.0,35,31,-5,-21,16,9,-33,-14,-6,18,29,41
789.0,36,31,-6,-22,17,9,-33,-13,-5,19,30,43
790.0,37,31,-6,-23,18,9,-33,-13,-4,19,31,43
791.0,37,31,-7,-23,18,9,-33,-13,-3,20,31,43
792.0,38,31,-7,-23,19,9,-33,-13,-2,20,32,44
793.0,38,31,-8,-24,20,8,-33,-12,0,21,32,45
794.0,39,30,-9,-24,21,8,-33,-12,1,21,33,45
795.0,39,30,-9,-25,21,8,-33,-11,1,21,33,45
796.0,39,30,-10,-25,22,8,-32,-11,2,21,33,45
797.0,40,30,-10,-26,23,7,-32,-11,3,22,34,45
798.0,40,30,-11,-26,23,7,-31,-11,3,22,34,45
799.0,40,30,-11,-26,23,7,-31,-11,3,22,34,45
800.0,40,30,-12,-26,24,7,-30,-10,2,22,34,45
801.0,40,29,-12,-27,25,7,-30,-10,0,21,33,44
802.0,40,29,-12,-27,25,6,-29,-10,-1,21,33,44
803.0,40,28,-13,-27,25,6,-28,-10,-3,21,33,44
804.0,39,27,-14,-27,26,5,-27,-10,-5,20,32,42
805.0,39,26,-14,-27,26,5,-26,-10,-8,19,32,41
806.0,38,25,-15,-26,26,5,-24,-10,-10,18,31,40
807.0,38,24,-15,-26,27,4,-23,-10,-13,17,30,40
808.0,36,21,-16,-26,27,3,-21,-11,-16,15,29,38
809.0,35,20,-16,-25,27,3,-19,-11,-19,14,28,36
810.0,34,19,-17,-25,27,3,-19,-11,-22,13,27,35
811.0,33,18,-17,-25,27,2,-17,-12,-24,12,26,34
812.0,31,16,-17,-23,27,1,-14,-13,-27,10,24,31
813.0,29,15,-17,-23,26,1,-12,-13,-29,8,23,29
814.0,27,13,-17,-22,26,1,-10,-14,-31,7,22,27
815.0,25,13,-17,-21,26,1,-9,-14,-32,6,21,26
816.0,22,11,-17,-20,25,1,-7,-15,-33,3,18,23
817.0,20,10,-17,-19,24,0,-5,-16,-34,1,17,21
818.0,18,9,-17,-18,24,0,-3,-16,-34,0,15,18
819.0,16,8,-16,-17,23,0,-2,-17,-34,-1,14,16
820.0,13,6,-16,-16,22,-1,0,-17,-34,-3,13,14
821.0,11,6,-15,-14,20,-1,1,-17,-33,-4,11,12
822.0,8,6,-15,-14,20,-1,2,-17,-33,-5,10,10
823.0,6,5,-14,-12,19,-1,4,-17,-32,-6,8,8
824.0,3,4,-13,-11,17,-1,6,-17,-30,-9,6,5
825.0,1,3,-12,-9,16,-1,7,-17,-29,-10,5,3
826.0,0,3,-12,-8,15,-1,8,-17,-28,-11,3,1
827.0,-2,2,-10,-7,13,-1,10,-17,-27,-12,2,0
828.0,-4,2,-9,-6,12,-1,11,-17,-26,-13,1,-1
829.0,-5,1,-8,-5,11,-1,12,-17,-24,-14,-1,-3
830.0,-6,1,-8,-4,10,-1,12,-17,-24,-14,-1,-4
831.0,-8,1,-7,-2,8,0,13,-16,-22,-16,-2,-6
832.0,-9,0,-6,-1,7,0,13,-16,-21,-16,-3,-7
833.0,-9,0,-6,-1,7,0,13,-16,-21,-17,-4,-7
834.0,-10,0,-5,0,6,0,14,-15,-20,-17,-5,-8
835.0,-11,0,-4,1,4,0,14,-14,-18,-18,-6,-9
836.0,-12,0,-3,1,3,0,14,-14,-17,-18,-7,-9
837.0,-12,0,-2,2,3,0,13,-13,-16,-18,-7,-10
838.0,-13,0,-2,2,3,0,13,-13,-16,-19,-8,-10
839.0,-13,0,-2,3,2,0,13,-12,-14,-19,-9,-10
840.0,-13,0,-1,4,1,1,13,-12,-13,-19,-9,-11
841.0,-13,0,-1,4,1,1,12,-11,-13,-19,-9,-11
842.0,-14,0,-1,5,0,1,12,-11,-12,-19,-10,-11
843.0,-14,0,0,6,-1,1,11,-10,-11,-19,-10,-11
844.0,-14,0,1,6,-2,1,11,-9,-10,-19,-10,-11
845.0,-14,0,1,6,-2,1,10,-9,-9,-18,-11,-11
846.0,-14,0,1,7,-2,1,10,-9,-9,-18,-11,-11
847.0,-14,0,2,7,-3,1,10,-8,-8,-18,-11,-11
848.0,-14,0,2,7,-3,1,9,-7,-8,-18,-11,-11
849.0,-14,0,2,8,-4,1,9,-7,-8,-17,-11,-11
850.0,-14,1,3,8,-4,1,9,-6,-7,-17,-11,-10
851.0,-13,1,3,8,-5,1,9,-5,-6,-17,-11,-10
852.0,-13,1,3,8,-5,1,8,-4,-6,-16,-11,-10
853.0,-13,1,3,8,-5,1,8,-4,-6,-16,-11,-10
854.0,-13,1,4,9,-5,1,8,-3,-6,-16,-11,-10
855.0,-13,1,4,9,-5,1,8,-3,-5,-15,-11,-10
856.0,-12,1,4,9,-6,1,8,-2,-5,-15,-11,-9
857.0,-12,1,4,9,-6,1,8,-2,-5,-15,-11,-9
858.0,-12,1,4,9,-6,1,8,-2,-4,-14,-11,-9
859.0,-12,1,4,9,-6,1,7,-2,-4,-14,-11,-9
860.0,-12,1,4,9,-6,1,7,-2,-3,-13,-11,-9
861.0,-12,1,4,9,-6,1,7,-1,-3,-13,-11,-9
862.0,-12,1,4,9,-6,1,7,-1,-3,-13,-10,-9
863.0,-12,1,4,9,-6,1,7,0,-2,-12,-10,-9
864.0,-12,1,4,9,-6,1,7,0,-2,-12,-10,-9
865.0,-11,1,4,9,-6,1,7,0,-2,-12,-10,-9
866.0,-11,1,4,10,-6,1,7,0,-2,-11,-10,-9
867.0,-11,1,4,10,-6,1,7,1,-2,-11,-10,-9
868.0,-11,1,4,10,-6,1,7,1,-2,-11,-10,-9
869.0,-11,1,4,10,-6,1,7,1,-2,-10,-10,-8
870.0,-10,1,4,9,-6,1,7,1,-2,-10,-9,-8
871.0,-10,1,4,9,-6,1,7,2,-2,-10,-9,-8
872.0,-10,1,4,9,-6,1,7,2,-2,-10,-9,-8
873.0,-10,1,4,9,-6,1,7,2,-1,-9,-9,-8
874.0,-10,1,4,9,-6,1,7,2,-1,-9,-9,-8
875.0,-10,1,4,9,-6,1,7,2,-1,-9,-9,-8
876.0,-10,1,4,9,-6,1,7,2,-1,-9,-9,-8
877.0,-9,1,4,9,-6,1,7,2,-1,-8,-9,-8
878.0,-9,1,4,9,-6,1,7,2,-1,-8,-9,-8
879.0,-9,1,4,9,-5,1,7,3,-1,-8,-9,-8
880.0,-9,1,4,9,-5,1,7,3,-1,-8,-9,-8
881.0,-9,1,4,9,-5,1,7,3,-1,-8,-8,-8
882.0,-9,1,4,9,-5,1,7,3,-1,-8,-8,-8
883.0,-9,1,4,9,-5,1,7,3,-1,-7,-8,-8
884.0,-10,1,4,9,-5,1,7,3,-1,-7,-8,-8
885.0,-10,1,3,9,-5,1,7,3,-1,-7,-8,-8
886.0,-10,1,3,9,-5,1,7,3,-1,-7,-8,-8
887.0,-10,1,3,9,-5,1,7,3,-1,-7,-8,-8
888.0,-10,1,3,9,-5,1,7,3,-1,-7,-8,-8
889.0,-10,1,3,9,-5,1,7,3,-1,-7,-8,-8
890.0,-10,1,3,9,-5,1,7,3,-1,-7,-8,-8
891.0,-10,1,3,9,-5,1,7,3,-1,-7,-8,-8
892.0,-10,1,3,9,-5,1,7,3,-1,-7,-8,-8
893.0,-10,1,3,9,-5,1,7,3,-1,-7,-8,-8
894.0,-10,1,3,9,-5,1,7,3,-1,-6,-8,-8
895.0,-10,1,3,9,-5,1,7,3,-1,-6,-8,-8
896.0,-10,1,3,9,-5,1,7,3,-1,-6,-8,-8
897.0,-10,1,3,9,-5,1,7,3,-1,-6,-8,-8
898.0,-10,0,3,9,-5,1,7,3,-1,-6,-8,-8
899.0,-10,0,3,9,-5,1,7,3,-1,-6,-8,-8
900.0,-10,0,3,9,-5,1,7,3,-1,-6,-8,-8
901.0,-10,0,3,9,-5,1,7,3,-1,-6,-8,-8
902.0,-10,0,3,9,-5,1,7,3,-1,-6,-8,-9
903.0,-10,0,3,9,-5,1,7,3,-1,-6,-8,-9
904.0,-10,0,3,9,-5,1,7,3,-1,-6,-8,-9
905.0,-10,0,3,9,-5,1,7,3,-1,-6,-8,-9
906.0,-10,0,3,9,-5,1,7,3,-1,-6,-8,-9
907.0,-10,0,3,9,-5,1,7,3,-1,-6,-8,-9
908.0,-10,0,3,9,-5,1,7,3,-1,-6,-8,-9
909.0,-10,0,3,9,-5,1,7,3,-1,-6,-8,-9
910.0,-10,0,3,9,-5,1,7,3,-1,-6,-8,-9
911.0,-10,1,3,9,-5,1,7,3,-1,-6,-8,-9
912.0,-9,1,3,9,-5,1,7,3,-1,-6,-8,-9
913.0,-9,0,3,9,-5,1,7,3,-1,-6,-8,-9
914.0,-9,0,3,9,-5,1,7,3,-1,-6,-8,-9
915.0,-9,0,3,9,-5,1,7,3,-1,-6,-8,-9
916.0,-9,1,3,9,-5,1,7,3,-1,-6,-8,-9
917.0,-9,1,3,9,-5,1,7,3,-1,-6,-8,-9
918.0,-10,1,3,9,-5,1,7,3,-1,-6,-8,-9
919.0,-10,1,3,9,-5,1,7,3,-1,-6,-8,-9
920.0,-10,0,3,9,-5,1,8,3,-1,-6,-8,-9
921.0,-10,0,3,9,-5,1,8,3,-1,-6,-8,-9
922.0,-10,0,3,9,-5,1,8,3,-1,-6,-8,-9
923.0,-10,0,3,9,-5,1,8,3,-1,-6,-8,-9
924.0,-10,0,3,9,-5,1,8,3,-1,-6,-8,-9
925.0,-10,0,3,9,-5,1,8,3,-1,-6,-8,-9
926.0,-10,0,3,9,-5,1,8,3,-1,-6,-8,-9
927.0,-10,0,3,9,-5,1,8,3,-1,-6,-8,-9
928.0,-10,0,3,9,-5,1,8,3,-1,-6,-8,-9
929.0,-10,0,3,9,-5,1,8,3,-1,-6,-8,-9
930.0,-10,0,3,9,-5,1,8,3,-1,-6,-8,-9
931.0,-10,0,3,9,-5,1,8,3,-1,-6,-8,-9
932.0,-10,0,3,9,-5,1,8,3,-1,-6,-8,-9
933.0,-10,0,3,9,-5,1,8,3,-1,-6,-8,-9
934.0,-10,0,3,9,-5,1,8,3,-1,-6,-8,-9
935.0,-10,0,3,9,-5,1,8,3,-1,-6,-8,-9
936.0,-10,0,3,9,-5,1,8,3,-1,-6,-8,-9
937.0,-10,0,3,9,-5,1,8,3,-1,-6,-8,-9
938.0,-10,-1,2,9,-5,1,8,3,-1,-6,-8,-9
939.0,-10,-1,2,9,-5,1,8,3,-2,-6,-8,-9
940.0,-10,-1,2,9,-5,1,8,3,-2,-6,-8,-9
941.0,-10,-1,2,10,-5,1,8,3,-2,-6,-8,-9
942.0,-11,-1,2,10,-5,1,8,3,-2,-6,-8,-9
943.0,-11,-1,2,10,-5,1,8,3,-2,-6,-8,-9
944.0,-11,-1,2,10,-5,1,8,3,-2,-7,-8,-9
945.0,-11,-1,2,10,-5,1,8,3,-2,-7,-8,-9
946.0,-11,-1,2,10,-5,1,8,3,-2,-7,-8,-9
947.0,-11,-1,2,10,-5,1,8,3,-2,-7,-8,-9
948.0,-11,-1,2,10,-5,1,8,3,-2,-7,-8,-9
949.0,-11,-1,2,10,-5,0,8,3,-2,-7,-8,-10
950.0,-11,-1,2,10,-5,0,8,3,-2,-7,-8,-10
951.0,-11,-1,2,10,-5,0,8,3,-2,-7,-8,-10
952.0,-11,-1,2,10,-5,0,8,3,-2,-7,-8,-10
953.0,-11,-1,2,10,-5,0,8,3,-2,-7,-8,-10
954.0,-11,-1,2,10,-5,0,8,3,-2,-7,-8,-10
955.0,-11,-1,2,10,-5,0,8,3,-2,-7,-8,-10
956.0,-11,-1,2,10,-5,0,9,3,-2,-7,-9,-10
957.0,-11,-1,2,10,-5,0,9,3,-2,-7,-9,-10
958.0,-11,-1,2,10,-5,0,9,3,-2,-7,-9,-10
959.0,-11,-1,2,10,-5,0,9,3,-2,-7,-9,-10
960.0,-11,-1,2,10,-5,0,9,3,-2,-7,-9,-10
961.0,-11,-1,2,10,-5,0,9,3,-2,-7,-9,-10
962.0,-11,-1,2,10,-5,0,9,3,-2,-7,-9,-10
963.0,-11,-1,2,10,-5,0,9,3,-2,-8,-9,-10
964.0,-11,-2,2,10,-5,0,9,3,-2,-8,-9,-10
965.0,-11,-2,2,10,-5,0,9,3,-3,-8,-9,-10
966.0,-11,-2,2,10,-5,0,9,3,-3,-8,-9,-10
967.0,-11,-2,2,10,-5,0,9,3,-3,-8,-9,-10
968.0,-11,-2,2,10,-5,0,9,3,-3,-8,-9,-10
969.0,-11,-2,2,10,-5,0,9,3,-3,-8,-9,-10
970.0,-11,-2,2,10,-5,0,9,3,-3,-8,-9,-10
971.0,-11,-2,2,10,-5,0,9,3,-3,-8,-9,-10
972.0,-11,-2,2,11,-5,0,9,3,-4,-8,-9,-10
973.0,-11,-3,2,11,-5,0,9,3,-4,-9,-9,-10
974.0,-11,-3,2,11,-5,-1,9,3,-4,-9,-10,-10
975.0,-11,-3,1,11,-5,-1,9,3,-4,-9,-10,-10
976.0,-11,-3,1,11,-5,-1,9,3,-4,-9,-10,-10
977.0,-11,-3,1,11,-5,-1,9,3,-4,-9,-10,-10
978.0,-11,-3,1,11,-5,-1,9,3,-5,-9,-10,-10
979.0,-11,-3,1,11,-5,-1,9,3,-5,-9,-10,-11
980.0,-11,-3,1,11,-5,-1,9,2,-5,-9,-10,-11
981.0,-12,-3,1,11,-5,-1,9,2,-5,-10,-10,-11
982.0,-12,-3,1,11,-5,-1,9,2,-5,-10,-10,-11
983.0,-12,-3,1,11,-5,-1,9,2,-5,-10,-10,-11
984.0,-12,-3,1,11,-5,-1,9,2,-6,-10,-10,-11
985.0,-12,-3,1,11,-5,-1,9,2,-6,-10,-10,-11
986.0,-12,-4,1,11,-5,-1,9,2,-6,-10,-10,-11
987.0,-12,-4,1,11,-4,-1,9,2,-6,-11,-11,-11
988.0,-12,-4,1,11,-4,-1,9,2,-6,-11,-11,-11
989.0,-12,-4,1,11,-4,-1,9,2,-6,-11,-11,-11
990.0,-12,-4,1,11,-4,-1,9,2,-6,-11,-11,-11
991.0,-12,-4,1,12,-4,-2,9,2,-6,-11,-11,-11
992.0,-12,-4,1,12,-4,-2,9,2,-6,-11,-11,-11
993.0,-12,-4,1,12,-4,-2,9,2,-7,-12,-11,-11
994.0,-11,-4,0,12,-4,-2,9,2,-7,-12,-11,-11
995.0,-11,-4,0,12,-4,-2,9,2,-7,-12,-11,-11
996.0,-11,-4,0,12,-4,-2,9,2,-7,-12,-11,-11
997.0,-11,-4,0,12,-4,-2,9,1,-7,-12,-11,-11
998.0,-11,-4,0,12,-4,-2,8,1,-8,-12,-12,-11
999.0,-11,-4,0,12,-4,-2,8,1,-8,-13,-12,-11
1000.0,-11,-4,0,12,-4,-2,8,1,-8,-13,-12,-11
1001.0,-11,-4,0,12,-4,-2,8,1,-8,-13,-12,-11
1002.0,-11,-4,0,12,-4,-2,8,1,-8,-13,-12,-11
1003.0,-11,-4,0,12,-4,-2,8,1,-9,-13,-12,-11
1004.0,-11,-4,0,12,-4,-2,8,1,-9,-13,-12,-11
1005.0,-11,-4,0,12,-4,-2,8,1,-9,-13,-12,-11
1006.0,-11,-4,0,12,-4,-2,8,1,-9,-14,-12,-11
1007.0,-10,-4,-1,12,-4,-3,8,1,-10,-14,-12,-11
1008.0,-10,-4,-1,12,-3,-3,8,1,-10,-14,-12,-11
1009.0,-10,-4,-1,12,-3,-3,8,0,-10,-14,-12,-11
1010.0,-10,-4,-1,11,-3,-3,7,0,-11,-14,-12,-11
1011.0,-10,-4,-1,11,-3,-3,7,0,-11,-14,-12,-10
1012.0,-10,-4,-1,11,-3,-3,7,0,-11,-15,-12,-10
1013.0,-10,-4,-1,11,-3,-3,7,0,-11,-15,-12,-10
1014.0,-10,-4,-1,11,-3,-3,7,0,-12,-15,-12,-10
1015.0,-10,-4,-1,11,-3,-3,7,0,-12,-15,-12,-10
1016.0,-9,-4,-1,11,-3,-3,6,0,-12,-15,-12,-10
1017.0,-9,-4,-2,11,-3,-3,6,0,-12,-15,-12,-10
1018.0,-9,-4,-2,11,-3,-3,6,0,-12,-15,-12,-10
1019.0,-9,-4,-2,11,-2,-3,6,-1,-12,-15,-12,-9
1020.0,-9,-4,-2,11,-2,-3,6,-1,-12,-15,-12,-9
1021.0,-9,-4,-2,11,-2,-3,6,-1,-13,-15,-12,-9
1022.0,-9,-4,-2,11,-2,-3,5,-1,-13,-15,-12,-9
1023.0,-9,-4,-2,11,-2,-3,5,-1,-13,-15,-12,-9
1024.0,-9,-4,-2,11,-2,-4,5,-1,-13,-15,-12,-9
1025.0,-9,-4,-2,11,-2,-4,5,-1,-13,-15,-12,-9
1026.0,-9,-4,-2,11,-2,-4,4,-1,-13,-15,-12,-8
1027.0,-9,-4,-2,11,-2,-4,4,-1,-13,-15,-11,-8
1028.0,-8,-4,-2,11,-2,-4,4,-1,-13,-15,-11,-8
1029.0,-8,-4,-2,11,-2,-4,4,-1,-13,-15,-11,-8
1030.0,-8,-4,-2,11,-2,-4,4,-1,-13,-15,-11,-8
1031.0,-8,-3,-2,11,-1,-4,3,-1,-13,-15,-11,-7
1032.0,-8,-3,-2,10,-1,-4,3,-1,-13,-15,-11,-7
1033.0,-7,-3,-2,10,-1,-4,3,-1,-13,-15,-11,-7
1034.0,-7,-3,-2,10,-1,-4,3,-1,-13,-15,-10,-7
1035.0,-7,-3,-2,10,-1,-4,3,-1,-13,-15,-10,-6
1036.0,-7,-3,-2,10,-1,-4,3,-1,-13,-15,-10,-6
1037.0,-7,-2,-2,10,-1,-4,2,-1,-13,-14,-10,-6
1038.0,-6,-2,-2,10,-1,-4,2,-1,-12,-14,-10,-6
1039.0,-6,-2,-2,10,-1,-3,2,-1,-12,-14,-9,-5
1040.0,-6,-2,-2,9,-1,-3,2,-1,-12,-14,-9,-5
1041.0,-6,-2,-2,9,0,-3,2,-1,-12,-14,-9,-5
1042.0,-6,-1,-2,9,0,-3,2,-1,-11,-13,-9,-4
1043.0,-5,-1,-2,9,0,-3,2,-1,-11,-13,-8,-4
1044.0,-5,-1,-2,9,0,-3,2,-1,-11,-13,-8,-4
1045.0,-5,-1,-2,9,0,-3,2,-1,-11,-13,-8,-3
1046.0,-5,0,-2,8,0,-3,2,-1,-10,-12,-7,-3
1047.0,-5,0,-2,8,0,-3,1,-1,-10,-12,-7,-3
1048.0,-4,0,-2,8,0,-3,1,-1,-10,-12,-7,-2
1049.0,-4,1,-2,8,0,-3,1,-1,-10,-11,-7,-2
1050.0,-3,1,-2,8,0,-3,1,0,-9,-11,-6,-2
1051.0,-3,1,-2,7,1,-2,1,0,-9,-10,-6,-2
1052.0,-3,1,-2,7,1,-2,1,0,-9,-10,-6,-2
1053.0,-2,2,-2,7,1,-2,0,0,-8,-10,-5,-1
1054.0,-2,2,-2,6,1,-2,0,0,-8,-9,-5,-1
1055.0,-2,2,-2,6,1,-2,0,0,-7,-9,-5,-1
1056.0,-1,2,-2,6,1,-2,0,0,-7,-9,-4,-1
1057.0,-1,3,-2,6,2,-2,0,0,-7,-8,-4,0
1058.0,-1,3,-3,6,2,-2,0,0,-6,-8,-4,0
1059.0,-1,3,-3,5,2,-2,0,1,-6,-8,-4,0
1060.0,0,3,-3,5,2,-2,0,1,-6,-7,-3,0
1061.0,0,4,-3,5,2,-2,0,1,-6,-7,-3,0
1062.0,0,4,-3,5,2,-1,0,1,-5,-6,-3,0
1063.0,0,4,-2,5,2,-1,0,1,-5,-6,-2,0
1064.0,0,4,-2,4,2,-1,0,1,-5,-6,-2,0
1065.0,0,4,-2,4,2,-1,0,1,-4,-6,-2,0
1066.0,0,5,-2,4,2,-1,0,2,-4,-5,-2,0
1067.0,0,5,-2,4,3,-1,0,2,-3,-5,-2,0
1068.0,0,5,-2,4,3,-1,0,2,-3,-4,-2,0
1069.0,0,5,-2,3,3,0,0,2,-2,-4,-2,0
1070.0,0,5,-2,3,3,0,0,2,-2,-4,-2,0
1071.0,0,6,-2,3,3,0,0,2,-2,-4,-2,0
1072.0,0,6,-2,3,3,0,0,2,-1,-4,-1,0
1073.0,0,6,-2,3,3,0,0,3,-1,-4,-1,0
1074.0,0,6,-2,3,3,0,0,3,0,-3,-1,0
1075.0,0,6,-2,2,3,0,0,3,0,-3,-1,0
1076.0,1,6,-2,2,3,0,0,3,0,-3,-1,0
1077.0,1,6,-2,2,3,1,0,3,1,-2,0,0
1078.0,1,6,-2,2,3,1,0,3,1,-2,0,0
1079.0,1,6,-2,2,3,1,0,3,1,-2,0,0
1080.0,1,6,-2,2,3,1,0,3,2,-2,0,1
1081.0,1,6,-2,2,3,1,0,3,2,-1,0,1
1082.0,1,7,-2,1,3,1,0,3,2,-1,0,1
1083.0,1,7,-2,1,3,1,0,3,2,-1,0,1
1084.0,1,7,-2,1,3,1,0,3,2,-1,0,1
1085.0,1,7,-2,1,3,1,0,3,3,-1,1,1
1086.0,1,7,-2,1,3,1,0,3,3,0,1,1
1087.0,1,7,-2,1,3,1,0,3,3,0,1,1
1088.0,1,8,-1,1,3,1,0,3,3,0,1,1
1089.0,1,8,-1,1,2,1,0,3,3,0,1,1
1090.0,1,8,-1,1,2,2,0,3,3,0,1,1
1091.0,1,8,-1,1,2,2,0,3,3,0,1,1
1092.0,1,8,-1,1,2,2,0,3,3,1,1,1
1093.0,1,8,-1,1,2,2,0,3,3,1,1,1
1094.0,1,8,-1,1,2,2,0,3,3,1,1,1
1095.0,1,8,0,1,2,2,0,3,3,1,1,0
1096.0,1,8,0,1,2,2,0,3,3,1,1,0
1097.0,0,8,0,1,2,3,0,2,3,1,1,0
1098.0,0,8,0,1,2,3,0,2,3,1,1,0
1099.0,0,8,0,1,2,3,0,2,3,1,1,0
1100.0,0,8,0,1,2,3,0,2,3,1,1,0
1101.0,0,8,0,1,2,3,0,2,3,1,1,0
1102.0,0,8,1,1,1,3,0,2,3,1,1,0
1103.0,0,8,1,1,1,3,0,2,3,1,1,0
1104.0,0,8,1,1,1,3,0,2,3,2,1,0
1105.0,0,8,1,1,1,3,0,1,3,2,1,0
1106.0,0,8,1,1,1,3,0,1,3,2,1,0
1107.0,0,8,1,1,1,3,0,1,3,2,1,0
1108.0,0,8,1,1,1,3,0,1,3,2,1,0
1109.0,0,8,1,1,1,4,0,1,3,2,1,0
1110.0,0,8,1,1,1,4,0,1,3,2,1,0
1111.0,0,8,1,1,1,4,0,1,3,2,1,0
1112.0,0,9,1,1,1,4,0,1,3,2,1,0
1113.0,0,9,1,1,1,4,0,1,3,2,1,0
1114.0,0,9,2,1,1,4,0,1,3,2,1,0
1115.0,0,9,2,1,1,4,0,1,3,2,1,0
1116.0,0,9,2,1,1,4,0,1,4,2,1,0
1117.0,0,9,2,1,1,4,0,1,4,2,1,0
1118.0,0,9,2,1,1,4,0,1,4,2,1,0
1119.0,0,9,2,1,1,4,0,1,4,2,1,0
1120.0,0,9,2,1,1,4,0,1,4,2,1,0
1121.0,0,9,2,1,1,4,0,1,4,2,1,0
1122.0,0,9,2,1,1,4,0,1,4,2,1,0
1123.0,0,9,2,1,0,4,0,1,4,2,1,0
1124.0,0,9,2,1,0,4,0,1,4,2,1,0
1125.0,0,9,2,1,0,5,0,1,4,2,1,0
1126.0,0,9,2,1,0,5,0,1,4,2,1,0
1127.0,0,9,2,1,0,5,0,1,4,2,1,0
1128.0,0,10,2,1,0,5,0,1,4,2,1,0
1129.0,0,10,3,0,0,5,0,1,4,2,1,0
1130.0,0,10,3,0,0,5,0,1,4,2,1,0
1131.0,0,10,3,0,0,5,0,1,4,2,1,0
1132.0,0,10,3,0,0,5,0,1,4,2,1,0
1133.0,0,10,3,0,0,5,0,1,4,2,1,0
1134.0,0,10,3,0,0,5,0,1,4,2,1,0
1135.0,0,10,3,0,0,5,0,1,4,2,1,0
1136.0,0,10,3,0,0,5,0,1,4,2,1,0
1137.0,0,10,3,0,0,5,0,1,4,2,1,0
1138.0,0,11,3,0,0,5,0,1,4,2,1,0
1139.0,0,10,3,0,0,5,0,1,4,2,1,0
1140.0,0,10,3,0,0,5,0,1,4,2,1,0
1141.0,0,10,3,0,0,5,0,1,4,2,1,0
1142.0,0,10,3,0,0,5,0,1,4,2,1,0
1143.0,0,10,3,0,0,6,0,0,4,2,1,0
1144.0,0,10,3,0,0,6,0,0,4,2,1,0
1145.0,0,10,3,0,0,6,0,0,4,2,1,0
1146.0,-1,10,3,0,0,6,0,0,3,2,1,0
1147.0,-1,9,3,0,0,6,0,0,3,2,1,0
1148.0,-1,9,3,0,0,6,0,0,3,2,1,0
1149.0,-1,9,3,0,0,6,0,0,3,2,1,0
1150.0,-1,9,3,0,0,5,0,0,3,2,1,0
1151.0,-1,9,3,0,0,5,0,0,3,2,1,0
1152.0,-1,9,3,0,0,5,0,0,3,1,1,0
1153.0,-1,9,3,0,0,5,0,0,3,1,1,0
1154.0,-1,9,3,0,0,5,0,0,3,1,0,0
1155.0,-1,9,3,0,0,5,0,0,3,1,0,0
1156.0,-1,9,3,0,0,5,0,0,3,1,0,0
1157.0,-1,9,3,0,0,5,0,0,3,1,0,0
1158.0,0,9,3,0,0,5,0,0,3,1,0,0
1159.0,0,9,3,0,0,5,0,0,3,1,0,0
1160.0,0,9,3,0,0,5,0,0,3,1,0,0
1161.0,0,9,3,0,0,5,0,0,3,1,0,0
1162.0,0,10,3,0,0,5,0,0,3,1,0,0
1163.0,0,10,3,0,0,5,0,0,3,1,0,0
1164.0,0,10,3,0,0,5,0,0,3,1,0,0
1165.0,0,10,3,0,0,5,0,0,3,1,0,0
1166.0,0,10,3,0,0,5,0,0,3,1,0,0
1167.0,0,10,3,0,0,5,0,0,3,1,0,0
1168.0,0,10,3,0,0,5,0,0,3,1,0,0
1169.0,0,10,3,0,0,5,0,0,3,1,0,0
1170.0,0,10,3,0,0,5,0,0,3,1,0,0
1171.0,0,10,3,0,0,5,0,0,3,1,0,0
1172.0,0,10,3,0,0,5,0,0,3,1,0,0
1173.0,0,10,3,0,0,5,0,0,3,1,0,0
1174.0,0,10,3,0,0,5,0,0,3,1,0,0
1175.0,0,10,3,0,0,5,0,0,3,1,0,0
1176.0,0,10,3,0,0,5,0,0,3,1,0,0
1177.0,0,10,3,0,0,5,0,0,3,1,0,0
1178.0,0,10,3,0,0,5,0,0,3,1,0,0
1179.0,0,10,3,0,0,5,0,0,3,1,0,0
1180.0,0,10,3,0,0,5,0,0,3,1,0,0
1181.0,0,10,3,0,0,5,0,0,3,1,0,0
1182.0,0,10,3,0,0,5,0,0,3,1,0,0
1183.0,0,10,3,0,0,5,0,-1,3,1,0,0
1184.0,0,9,3,0,0,5,0,-1,3,1,0,0
1185.0,0,9,3,0,0,5,0,0,3,1,0,0
1186.0,0,9,3,0,0,5,0,0,3,1,0,0
1187.0,0,9,3,0,0,5,0,0,2,1,0,0
1188.0,0,9,3,0,0,5,0,0,2,1,0,0
1189.0,0,9,3,0,0,5,0,0,2,1,0,0
1190.0,0,9,3,0,0,5,0,0,2,1,0,0
1191.0,0,9,3,0,0,5,0,0,2,1,0,0
1192.0,0,9,3,0,0,5,0,0,2,1,0,0
1193.0,0,9,3,0,0,5,0,0,2,1,0,0
1194.0,0,10,3,0,0,5,0,0,3,1,0,0
1195.0,0,10,3,0,0,5,0,0,3,1,0,0
1196.0,0,10,3,0,0,5,0,0,3,1,0,0
1197.0,0,10,3,0,0,5,0,0,3,1,0,0
1198.0,0,10,3,0,0,5,0,0,3,1,0,0
1199.0,0,10,3,0,0,5,0,0,3,1,0,0
1200.0,0,10,3,0,0,5,0,0,3,1,0,0
1201.0,0,10,3,0,0,5,0,0,3,1,0,0
1202.0,1,11,3,0,0,5,0,0,3,1,0,0
1203.0,1,11,3,0,0,6,0,0,3,1,0,0
1204.0,1,11,3,0,0,6,0,0,3,1,0,0
1205.0,1,11,3,0,0,6,0,0,3,1,0,0
1206.0,1,11,3,0,0,6,0,0,3,1,0,0
1207.0,1,11,3,0,0,6,1,0,3,1,0,0
1208.0,1,11,3,0,0,6,1,0,3,1,0,0
1209.0,1,11,3,0,0,6,1,0,3,1,0,0
1210.0,1,11,3,0,0,6,1,0,3,1,0,0
1211.0,1,11,3,0,0,6,1,0,3,1,0,0
1212.0,1,11,3,0,0,6,1,0,3,1,1,0
1213.0,1,11,3,-1,0,6,1,1,3,1,1,0
1214.0,1,11,3,-1,0,6,1,1,3,1,1,0
1215.0,1,11,3,-1,0,6,1,1,4,1,1,0
1216.0,1,11,3,-1,0,6,1,1,4,1,1,0
1217.0,1,11,3,-1,0,6,0,1,4,1,1,0
1218.0,1,11,3,-1,0,6,0,1,4,1,1,0
1219.0,1,11,3,-1,0,6,0,1,4,1,1,0
1220.0,1,11,3,-1,0,6,0,1,4,1,1,0
1221.0,1,11,3,-1,0,6,0,1,4,1,1,0
1222.0,1,11,3,-1,0,6,0,1,4,1,1,0
1223.0,1,11,3,-1,0,6,0,1,4,1,1,0
1224.0,1,11,3,-1,0,6,0,1,4,1,1,0
1225.0,1,11,3,-1,0,6,0,1,4,1,1,0
1226.0,1,11,4,-1,0,6,0,1,4,1,1,0
1227.0,1,11,4,-1,0,6,0,1,4,1,1,0
1228.0,1,11,4,-1,0,6,0,1,4,1,1,0
1229.0,1,11,4,-1,0,6,0,1,4,1,1,0
1230.0,1,11,4,-1,0,6,0,1,4,1,1,0
1231.0,1,11,4,-1,0,6,0,1,4,1,1,0
1232.0,1,11,4,-1,0,6,0,1,4,1,1,0
1233.0,1,11,4,-1,0,6,0,1,4,1,1,0
1234.0,1,11,4,-1,0,6,0,1,4,1,1,0
1235.0,1,11,4,-1,0,6,0,1,4,1,1,0
1236.0,1,12,4,-1,0,6,0,1,4,1,1,0
1237.0,1,12,4,-1,0,6,0,1,3,1,1,0
1238.0,1,12,4,-1,0,6,0,0,3,1,1,0
1239.0,1,12,3,-1,0,6,0,0,3,1,1,0
1240.0,1,12,3,-1,0,6,0,0,3,1,1,0
1241.0,2,11,3,-1,0,6,0,5,1,1,1,0
1242.0,11,8,0,-1,3,4,-1,24,-4,1,1,-2
1243.0,23,3,-4,-3,7,2,-2,45,-7,-1,-1,-4
1244.0,24,1,-7,-3,9,-1,-3,51,-8,-2,-2,-5
1245.0,22,3,-8,-3,9,-1,-3,46,-6,-1,-2,-5
1246.0,18,5,-7,-3,9,0,-3,34,-3,-1,-2,-4
1247.0,12,7,-5,-3,7,1,-2,23,1,-1,-1,-1
1248.0,5,9,-3,-3,5,1,-1,10,3,-1,-1,0
1249.0,1,11,-2,-2,4,2,-1,-1,4,0,0,0
1250.0,-1,12,-2,-2,4,3,-1,-8,4,0,0,1
1251.0,-3,13,0,-2,3,4,-1,-10,5,0,0,1
1252.0,-4,14,1,-2,2,5,0,-13,4,0,1,2
1253.0,-5,14,2,-1,2,5,0,-15,4,0,1,2
1254.0,-5,14,3,-1,1,6,0,-15,3,0,1,2
1255.0,-5,14,3,-1,1,6,0,-15,3,1,1,2
1256.0,-5,14,4,-1,0,6,0,-15,3,1,1,2
1257.0,-5,14,4,-1,0,7,0,-14,2,1,1,2
1258.0,-4,13,4,-1,-1,7,0,-13,2,1,1,2
1259.0,-4,13,5,-1,-1,7,0,-12,2,1,1,1
1260.0,-4,13,5,-1,-1,7,-1,-11,1,1,1,1
1261.0,-3,13,5,-1,-1,7,-1,-10,1,1,1,1
1262.0,-3,12,5,-1,-1,7,-1,-10,1,0,1,1
1263.0,-2,12,5,-1,-1,7,-1,-9,0,0,1,1
1264.0,-2,12,5,0,-1,7,-1,-8,0,0,1,0
1265.0,-2,11,5,0,-1,7,-1,-7,0,0,1,0
1266.0,-1,11,5,0,-1,7,-1,-6,-1,0,1,0
1267.0,-1,11,5,0,-1,7,-1,-6,-1,0,1,0
1268.0,-1,11,5,0,-1,7,-1,-5,-1,0,1,0
1269.0,0,11,5,0,-1,7,-1,-5,-1,0,1,0
1270.0,0,11,5,0,-1,7,-1,-4,-1,0,1,0
1271.0,0,10,5,0,-1,7,-1,-4,-1,-1,1,0
1272.0,0,10,5,0,-1,7,-1,-3,-2,-1,1,0
1273.0,0,10,5,0,-1,7,-1,-3,-2,-1,1,0
1274.0,0,10,4,0,-1,7,-1,-3,-2,-1,1,0
1275.0,1,11,4,0,-1,7,-1,-3,-2,-1,1,0
1276.0,1,11,4,0,-1,6,-1,-3,-2,-1,0,0
1277.0,1,11,4,0,-1,6,-1,-2,-2,-1,0,0
1278.0,1,11,4,0,0,6,-1,-2,-2,-1,0,0
1279.0,1,11,4,-1,0,6,-1,-2,-2,-1,0,0
1280.0,1,11,4,-1,0,6,-1,-2,-2,-1,0,0
1281.0,1,11,4,-1,0,6,-1,-2,-2,-1,0,0
1282.0,1,11,4,-1,0,6,-1,-2,-2,-1,0,0
1283.0,1,11,4,-1,0,6,-1,-2,-2,-1,0,0
1284.0,1,11,4,-1,0,6,-1,-2,-2,-2,0,0
1285.0,1,11,4,-1,0,6,-2,-2,-2,-2,0,0
1286.0,1,11,4,-1,0,6,-2,-2,-2,-2,0,0
1287.0,1,12,4,-1,0,6,-2,-2,-2,-2,0,0
1288.0,1,12,4,-1,0,6,-2,-2,-2,-2,0,0
1289.0,1,12,4,-1,0,6,-2,-2,-3,-2,0,0
1290.0,1,12,4,-1,0,6,-3,-2,-3,-2,0,0
1291.0,1,12,4,-1,0,7,-3,-2,-3,-2,0,0
1292.0,2,13,4,-1,0,7,-3,-2,-3,-2,0,0
1293.0,2,13,4,-2,0,7,-4,-2,-2,-1,0,0
1294.0,2,13,4,-2,1,7,-4,-2,-2,-1,1,1
1295.0,3,14,4,-2,1,7,-4,-2,-2,-1,1,1
1296.0,3,14,4,-2,1,7,-5,-2,-2,-1,1,1
1297.0,4,15,4,-2,1,7,-5,-2,-2,-1,1,2
1298.0,4,15,3,-3,1,7,-6,-2,-2,-1,1,2
1299.0,4,16,4,-3,1,7,-6,-3,-2,0,2,3
1300.0,5,16,4,-3,1,7,-7,-3,-2,0,2,3
1301.0,5,17,4,-4,1,8,-8,-3,-2,0,2,4
1302.0,6,17,4,-4,2,8,-8,-4,-3,1,3,4
1303.0,6,18,4,-4,2,8,-9,-4,-3,1,3,5
1304.0,7,18,4,-5,2,8,-10,-4,-4,1,4,5
1305.0,7,19,4,-5,2,8,-10,-5,-4,1,4,6
1306.0,8,20,4,-5,2,9,-11,-5,-5,2,4,7
1307.0,9,20,4,-6,2,9,-12,-5,-6,2,5,8
1308.0,9,21,4,-6,3,9,-13,-6,-6,2,5,8
1309.0,10,21,4,-7,3,9,-13,-6,-6,3,6,9
1310.0,11,22,4,-7,3,9,-14,-6,-7,3,7,10
1311.0,12,22,3,-8,3,10,-15,-7,-8,4,7,11
1312.0,13,23,3,-8,3,10,-16,-7,-8,4,8,12
1313.0,14,24,3,-9,4,10,-17,-8,-9,4,9,14
1314.0,15,24,3,-9,4,10,-18,-8,-10,5,10,15
1315.0,16,25,2,-10,5,10,-19,-9,-11,5,10,16
1316.0,18,25,2,-11,5,10,-20,-10,-11,6,11,18
1317.0,19,26,2,-11,6,10,-22,-10,-12,7,12,19
1318.0,20,26,1,-12,6,10,-23,-11,-13,7,14,21
1319.0,21,26,1,-13,7,10,-24,-12,-13,8,15,23
1320.0,22,27,1,-13,8,10,-25,-12,-14,8,16,24
1321.0,23,27,0,-14,8,10,-26,-13,-14,9,17,26
1322.0,25,27,0,-14,9,10,-27,-13,-15,10,18,27
1323.0,26,27,-1,-15,10,10,-28,-14,-15,10,19,29
1324.0,27,28,-1,-16,10,10,-29,-15,-15,11,20,30
1325.0,28,28,-2,-16,11,10,-30,-15,-15,11,21,32
1326.0,28,28,-2,-17,12,10,-31,-15,-15,12,22,34
1327.0,30,29,-2,-18,13,10,-32,-16,-14,13,24,35
1328.0,30,29,-3,-18,13,9,-32,-16,-13,13,24,36
1329.0,31,29,-3,-19,14,9,-33,-16,-13,14,25,37
1330.0,32,29,-4,-19,15,9,-33,-16,-12,14,26,38
1331.0,33,29,-4,-20,15,9,-34,-16,-11,15,27,40
1332.0,34,30,-5,-21,16,9,-34,-16,-9,15,28,41
1333.0,35,30,-6,-21,17,9,-34,-16,-8,16,29,41
1334.0,35,30,-6,-22,18,9,-34,-15,-7,16,30,42
1335.0,37,30,-7,-22,19,8,-34,-15,-6,17,31,43
1336.0,37,29,-8,-23,19,8,-34,-14,-5,17,31,43
1337.0,38,29,-8,-23,20,8,-34,-14,-4,18,32,44
1338.0,38,29,-9,-24,21,8,-34,-13,-2,18,32,44
1339.0,39,29,-9,-24,21,7,-33,-13,-1,18,33,45
1340.0,39,29,-10,-24,22,7,-33,-12,0,19,33,45
1341.0,40,29,-11,-25,23,7,-33,-12,1,19,33,45
1342.0,40,29,-11,-25,23,7,-32,-11,1,19,33,45
1343.0,41,29,-12,-26,24,6,-32,-11,0,19,33,45
1344.0,41,29,-12,-26,24,6,-31,-11,-1,19,33,45
1345.0,41,29,-13,-26,25,6,-30,-11,-2,19,33,44
1346.0,41,28,-13,-26,25,6,-30,-10,-3,18,33,44
1347.0,41,27,-14,-26,26,5,-29,-10,-6,18,32,43
1348.0,40,27,-14,-26,26,5,-28,-10,-7,17,32,43
1349.0,40,25,-15,-26,27,4,-26,-10,-10,16,31,42
1350.0,40,24,-16,-26,27,4,-25,-10,-13,15,30,41
1351.0,39,23,-16,-26,27,3,-24,-11,-16,14,30,39
1352.0,38,21,-17,-26,28,3,-23,-11,-19,13,29,38
1353.0,37,20,-17,-25,28,2,-21,-11,-23,12,28,37
1354.0,35,18,-18,-25,28,1,-19,-12,-26,10,26,34
1355.0,34,16,-19,-24,28,1,-18,-12,-28,9,25,32
1356.0,33,15,-19,-24,28,1,-16,-13,-30,7,24,31
1357.0,31,13,-19,-23,28,0,-14,-14,-32,6,22,29
1358.0,28,12,-20,-22,28,0,-13,-15,-34,4,21,26
1359.0,27,11,-20,-21,27,-1,-11,-15,-35,2,19,25
1360.0,25,9,-20,-20,27,-1,-9,-16,-37,1,18,23
1361.0,23,8,-20,-19,26,-2,-7,-16,-37,-1,16,21
1362.0,20,7,-19,-18,26,-2,-5,-17,-37,-3,14,18
1363.0,19,6,-19,-17,25,-2,-3,-17,-37,-4,13,16
1364.0,16,5,-19,-16,24,-3,-2,-17,-37,-5,11,13
1365.0,13,4,-18,-15,23,-3,0,-18,-37,-7,10,11
1366.0,10,3,-18,-13,22,-3,1,-18,-36,-8,8,8
1367.0,9,2,-17,-12,21,-4,3,-18,-35,-10,7,7
1368.0,6,2,-17,-11,20,-4,4,-18,-34,-11,5,5
1369.0,4,1,-16,-10,19,-4,6,-18,-33,-12,4,3
1370.0,2,0,-15,-9,18,-4,7,-17,-31,-13,2,1
1371.0,1,0,-15,-7,17,-4,9,-17,-30,-14,0,-1
1372.0,0,-1,-14,-6,15,-4,10,-17,-28,-15,-1,-2
1373.0,-2,-1,-13,-5,14,-4,11,-17,-27,-16,-2,-3
1374.0,-3,-1,-12,-4,13,-4,12,-16,-26,-17,-2,-4
1375.0,-5,-2,-11,-3,12,-4,12,-16,-25,-18,-3,-6
1376.0,-6,-2,-11,-2,11,-4,13,-16,-23,-19,-4,-7
1377.0,-7,-2,-10,0,9,-4,13,-15,-21,-19,-6,-8
1378.0,-8,-2,-9,0,9,-4,13,-15,-21,-20,-6,-8
1379.0,-9,-2,-8,1,8,-3,13,-15,-19,-20,-7,-9
1380.0,-9,-2,-8,1,7,-3,13,-14,-18,-20,-8,-10
1381.0,-10,-2,-7,2,6,-3,13,-14,-17,-21,-9,-10
1382.0,-10,-2,-6,2,5,-3,13,-14,-16,-21,-9,-10
1383.0,-11,-2,-6,3,4,-3,13,-13,-15,-21,-10,-11
1384.0,-11,-2,-5,4,3,-3,13,-13,-15,-21,-10,-11
1385.0,-12,-2,-4,4,3,-2,12,-12,-14,-21,-11,-11
1386.0,-12,-2,-4,5,3,-2,12,-12,-13,-21,-11,-11
1387.0,-12,-2,-3,5,2,-2,11,-11,-13,-21,-12,-12
1388.0,-12,-1,-2,6,2,-2,11,-11,-12,-20,-12,-12
1389.0,-12,-1,-2,6,1,-1,10,-10,-11,-20,-12,-12
1390.0,-12,-1,-2,6,0,-1,10,-10,-10,-20,-12,-12
1391.0,-12,-1,-2,7,0,-1,10,-9,-10,-20,-13,-12
1392.0,-12,-1,-1,7,-1,-1,9,-9,-9,-20,-13,-12
1393.0,-12,0,-1,7,-1,-1,9,-8,-9,-19,-13,-12
1394.0,-12,0,-1,8,-1,-1,8,-8,-8,-19,-13,-12
1395.0,-12,0,0,8,-2,0,8,-7,-7,-19,-13,-12
1396.0,-12,0,0,8,-2,0,7,-7,-7,-18,-13,-11
1397.0,-11,0,0,8,-3,0,7,-6,-6,-18,-13,-11
1398.0,-11,0,1,8,-3,0,7,-6,-6,-18,-13,-11
1399.0,-11,1,1,8,-3,0,6,-5,-6,-17,-13,-11
1400.0,-11,1,1,8,-3,0,6,-4,-6,-17,-13,-11
1401.0,-10,1,1,8,-3,0,6,-4,-5,-16,-13,-11
1402.0,-10,1,1,8,-3,0,6,-4,-5,-16,-13,-11
1403.0,-10,1,2,9,-4,0,6,-3,-4,-15,-12,-11
1404.0,-10,1,2,9,-4,1,6,-3,-4,-15,-12,-10
1405.0,-9,1,2,9,-4,1,6,-2,-4,-15,-12,-10
1406.0,-9,1,2,9,-4,1,6,-2,-4,-14,-12,-10
1407.0,-9,1,2,9,-4,1,6,-2,-3,-14,-12,-10
1408.0,-9,1,2,9,-4,1,6,-2,-3,-13,-12,-10
1409.0,-9,1,2,9,-4,1,6,-2,-3,-13,-12,-10
1410.0,-9,1,2,9,-4,1,5,-2,-3,-13,-12,-10
1411.0,-9,1,2,9,-4,1,5,-2,-3,-13,-12,-10
1412.0,-9,1,2,9,-4,1,5,-1,-3,-12,-11,-10
1413.0,-9,1,2,9,-4,1,5,-1,-3,-12,-11,-10
1414.0,-8,1,2,9,-4,1,5,-1,-2,-12,-11,-10
1415.0,-8,1,2,9,-4,1,5,-1,-2,-12,-11,-10
1416.0,-8,1,2,9,-4,1,5,0,-2,-11,-11,-10
1417.0,-8,1,2,9,-4,1,5,0,-2,-11,-11,-10
1418.0,-8,1,2,9,-4,1,5,0,-2,-11,-11,-10
1419.0,-8,1,2,9,-4,1,5,0,-1,-11,-11,-10
1420.0,-8,1,2,9,-4,1,5,0,-1,-10,-10,-10
1421.0,-8,1,2,9,-4,1,5,0,-1,-10,-10,-10
1422.0,-8,1,2,9,-4,1,5,0,-1,-10,-10,-10
1423.0,-8,0,2,9,-4,1,5,0,-1,-10,-10,-10
1424.0,-8,0,2,8,-3,1,5,1,-1,-9,-10,-10
1425.0,-8,0,1,8,-3,0,5,1,-1,-9,-10,-10
1426.0,-8,0,1,8,-3,0,5,1,-1,-9,-10,-10
1427.0,-8,1,1,8,-3,0,5,1,-1,-9,-10,-10
1428.0,-8,1,1,8,-3,0,5,1,-1,-9,-10,-10
1429.0,-8,1,1,8,-3,0,5,1,-1,-9,-10,-10
1430.0,-8,1,1,8,-3,0,5,1,-1,-9,-10,-10
1431.0,-8,1,1,8,-3,0,6,1,-1,-8,-10,-10
1432.0,-8,1,1,8,-3,0,6,1,-1,-8,-10,-10
1433.0,-8,1,1,8,-3,0,6,1,-1,-8,-9,-10
1434.0,-8,1,1,8,-3,0,6,1,-1,-8,-9,-10
1435.0,-8,1,1,8,-3,0,6,1,-1,-8,-9,-10
1436.0,-7,1,1,8,-3,0,5,1,0,-8,-9,-10
1437.0,-7,1,1,8,-3,0,5,1,0,-8,-9,-10
1438.0,-7,1,1,8,-3,0,5,1,0,-8,-9,-10
1439.0,-7,1,1,8,-3,0,5,1,0,-8,-9,-10
1440.0,-8,1,1,8,-3,0,5,1,0,-8,-9,-10
1441.0,-8,1,1,8,-3,0,5,1,0,-8,-9,-10
1442.0,-8,1,1,8,-3,0,5,1,0,-7,-9,-10
1443.0,-8,1,1,8,-3,0,5,1,0,-7,-9,-10
1444.0,-8,1,1,8,-3,0,5,1,0,-7,-9,-10
1445.0,-8,1,1,8,-3,0,5,1,0,-7,-9,-10
1446.0,-8,1,1,8,-3,0,6,1,0,-7,-9,-10
1447.0,-8,1,1,8,-3,0,6,1,0,-7,-9,-10
1448.0,-8,1,1,8,-3,0,6,1,0,-7,-9,-10
1449.0,-8,1,1,8,-3,0,6,1,0,-7,-9,-10
1450.0,-8,1,1,8,-3,0,6,2,0,-7,-9,-10
1451.0,-8,1,1,8,-3,0,6,2,0,-7,-9,-10
1452.0,-8,1,1,8,-3,0,6,2,0,-7,-9,-10
1453.0,-8,1,1,8,-3,0,6,2,0,-7,-9,-10
1454.0,-7,1,1,8,-3,0,6,2,0,-7,-9,-9
1455.0,-7,1,1,8,-3,0,5,2,0,-7,-9,-9
1456.0,-7,1,1,8,-3,0,5,2,0,-7,-9,-9
1457.0,-7,1,1,8,-3,0,5,2,0,-7,-9,-9
1458.0,-7,1,1,8,-3,0,5,2,0,-7,-9,-9
1459.0,-7,1,1,8,-3,0,5,2,0,-7,-9,-9
1460.0,-7,1,1,8,-3,0,5,2,0,-7,-9,-9
1461.0,-7,1,1,8,-3,0,5,2,0,-7,-9,-9
1462.0,-7,1,1,8,-3,0,5,2,0,-7,-9,-9
1463.0,-8,1,1,8,-3,0,5,2,0,-7,-9,-9
1464.0,-8,1,1,8,-3,0,5,2,0,-7,-9,-10
1465.0,-8,1,1,8,-3,0,5,2,0,-7,-9,-10
1466.0,-8,1,1,8,-3,0,5,2,0,-7,-9,-10
1467.0,-8,1,1,8,-3,0,5,2,0,-7,-9,-10
1468.0,-8,1,1,8,-3,0,5,2,0,-7,-9,-10
1469.0,-8,1,1,8,-3,0,5,2,0,-7,-9,-10
1470.0,-8,0,1,8,-3,0,5,2,0,-7,-9,-10
1471.0,-8,0,1,8,-3,0,5,2,0,-7,-9,-10
1472.0,-8,0,1,8,-3,0,5,2,-1,-7,-9,-10
1473.0,-8,0,1,8,-3,0,5,2,-1,-7,-9,-10
1474.0,-8,0,1,8,-3,0,5,2,-1,-7,-9,-10
1475.0,-8,0,1,8,-3,0,5,2,-1,-7,-9,-10
1476.0,-8,0,1,8,-3,0,5,2,-1,-7,-9,-10
1477.0,-7,0,1,8,-2,0,5,2,-1,-7,-9,-10
1478.0,-7,0,1,8,-2,0,5,2,0,-7,-9,-10
1479.0,-7,0,1,8,-2,0,5,2,0,-7,-9,-10
1480.0,-7,0,0,8,-2,0,5,2,0,-7,-9,-10
1481.0,-7,0,0,8,-2,0,5,2,0,-7,-9,-10
1482.0,-7,0,0,8,-2,0,5,2,0,-7,-9,-10
1483.0,-7,0,0,8,-2,0,5,2,0,-7,-9,-10
1484.0,-7,0,0,8,-2,0,5,2,0,-7,-9,-10
1485.0,-7,0,0,8,-2,0,5,2,0,-7,-9,-10
1486.0,-7,0,0,8,-2,0,5,2,0,-7,-9,-10
1487.0,-7,0,0,8,-2,0,5,2,0,-7,-9,-10
1488.0,-7,1,0,8,-2,0,5,2,0,-7,-9,-10
1489.0,-7,1,0,8,-2,0,5,2,-1,-7,-9,-10
1490.0,-7,1,0,8,-2,0,5,2,-1,-7,-9,-10
1491.0,-7,1,0,8,-2,0,5,2,-1,-7,-9,-10
1492.0,-7,1,0,8,-2,0,5,2,-1,-7,-9,-10
1493.0,-7,1,0,8,-2,0,5,2,-1,-7,-9,-10
1494.0,-7,1,0,8,-2,0,5,2,-1,-7,-9,-10
1495.0,-7,1,0,8,-2,0,5,2,-1,-7,-9,-10
1496.0,-7,1,0,8,-2,0,5,2,-1,-7,-9,-10
1497.0,-8,1,0,8,-2,0,5,2,-1,-7,-9,-10
1498.0,-8,0,0,8,-2,0,5,2,-1,-7,-9,-10
1499.0,-8,0,0,8,-2,0,5,2,-1,-7,-9,-10
1500.0,-8,0,0,8,-2,0,5,2,-1,-7,-9,-10
1501.0,-8,0,0,8,-2,0,6,2,-1,-7,-9,-10
1502.0,-8,0,0,8,-2,0,6,1,-1,-7,-9,-10
1503.0,-8,0,0,8,-2,0,6,1,-1,-7,-9,-10
1504.0,-8,0,0,8,-2,0,6,1,-2,-7,-9,-10
1505.0,-8,0,0,8,-2,0,6,1,-2,-7,-9,-10
1506.0,-8,0,0,8,-2,0,6,1,-2,-8,-9,-10
1507.0,-8,0,0,8,-2,0,6,1,-2,-8,-9,-10
1508.0,-8,0,0,8,-2,0,6,1,-2,-8,-9,-10
1509.0,-8,0,0,8,-2,0,6,1,-2,-8,-9,-10
1510.0,-8,0,0,8,-2,0,6,1,-2,-8,-9,-10
1511.0,-8,0,0,8,-2,0,6,1,-2,-8,-9,-10
1512.0,-7,0,0,8,-2,0,6,1,-3,-8,-9,-10
1513.0,-7,0,0,8,-2,0,6,1,-3,-8,-9,-10
1514.0,-7,0,0,8,-2,0,7,1,-3,-8,-9,-10
1515.0,-7,0,0,8,-2,0,7,1,-3,-8,-9,-11
1516.0,-7,0,0,8,-2,-1,7,1,-3,-8,-9,-11
1517.0,-7,0,0,8,-2,-1,7,1,-3,-9,-10,-11
1518.0,-7,0,0,8,-2,-1,7,1,-3,-9,-10,-11
1519.0,-7,0,0,8,-2,-1,6,1,-3,-9,-10,-11
1520.0,-7,-1,0,8,-2,-1,6,1,-4,-9,-10,-11
1521.0,-7,-1,0,8,-2,-1,6,1,-4,-9,-10,-11
1522.0,-7,-1,0,8,-2,-1,6,1,-4,-9,-10,-11
1523.0,-7,-1,0,8,-2,-1,6,1,-4,-9,-10,-11
1524.0,-8,-1,-1,8,-2,-1,6,1,-4,-9,-10,-11
1525.0,-8,-1,-1,8,-2,-1,6,1,-5,-9,-10,-11
1526.0,-8,-1,-1,8,-2,-1,6,1,-5,-10,-10,-11
1527.0,-8,-1,-1,8,-2,-1,6,0,-5,-10,-10,-11
1528.0,-8,-1,-1,8,-2,-1,6,0,-5,-10,-10,-11
1529.0,-8,-1,-1,8,-2,-1,6,0,-5,-10,-10,-11
1530.0,-8,-1,-1,8,-2,-1,6,0,-5,-10,-10,-11
1531.0,-8,-2,-1,9,-2,-1,6,0,-6,-10,-10,-11
1532.0,-8,-2,-1,9,-2,-1,6,0,-6,-10,-10,-11
1533.0,-8,-2,-1,9,-2,-1,6,0,-6,-11,-11,-11
1534.0,-8,-2,-1,9,-2,-1,6,0,-6,-11,-11,-11
1535.0,-8,-2,-1,9,-2,-1,6,0,-6,-11,-11,-11
1536.0,-8,-2,-1,9,-2,-2,6,0,-6,-11,-11,-11
1537.0,-8,-2,-1,9,-2,-2,6,0,-6,-11,-11,-11
1538.0,-8,-2,-1,9,-2,-2,6,0,-6,-11,-11,-11
1539.0,-8,-2,-1,9,-2,-2,6,-1,-7,-12,-11,-11
1540.0,-8,-2,-1,9,-2,-2,6,-1,-7,-12,-11,-11
1541.0,-8,-2,-1,9,-2,-2,6,-1,-7,-12,-11,-11
1542.0,-8,-3,-1,9,-2,-2,6,-1,-7,-12,-11,-11
1543.0,-8,-3,-1,9,-2,-2,6,-1,-8,-12,-11,-11
1544.0,-8,-3,-1,9,-2,-2,6,-1,-8,-12,-11,-11
1545.0,-8,-3,-1,9,-2,-2,6,-1,-8,-12,-11,-11
1546.0,-8,-3,-2,9,-2,-2,6,-1,-8,-12,-11,-11
1547.0,-8,-3,-2,9,-2,-2,6,-1,-9,-13,-11,-10
1548.0,-8,-3,-2,9,-2,-2,6,-1,-9,-13,-11,-10
1549.0,-8,-3,-2,9,-1,-2,6,-1,-9,-13,-11,-10
1550.0,-8,-3,-2,9,-1,-2,5,-2,-9,-13,-11,-10
1551.0,-8,-3,-2,9,-1,-2,5,-2,-10,-13,-11,-10
1552.0,-7,-3,-2,9,-1,-3,5,-2,-10,-13,-11,-10
1553.0,-7,-3,-2,9,-1,-3,5,-2,-10,-13,-11,-10
1554.0,-7,-3,-2,9,-1,-3,5,-2,-10,-14,-11,-10
1555.0,-7,-2,-2,9,-1,-3,5,-2,-10,-14,-11,-10
1556.0,-7,-2,-2,9,-1,-3,5,-2,-11,-14,-11,-9
1557.0,-7,-2,-2,9,-1,-3,5,-2,-11,-14,-11,-9
1558.0,-7,-2,-2,9,-1,-3,4,-2,-11,-14,-11,-9
1559.0,-6,-2,-2,9,-1,-3,4,-2,-11,-14,-11,-9
1560.0,-6,-2,-2,9,-1,-3,4,-2,-11,-14,-11,-9
1561.0,-6,-2,-2,9,-1,-3,4,-2,-11,-14,-11,-9
1562.0,-6,-2,-2,9,0,-3,3,-2,-12,-14,-11,-9
1563.0,-6,-2,-2,9,0,-3,3,-2,-12,-14,-11,-9
1564.0,-5,-2,-2,9,0,-3,3,-2,-12,-14,-11,-8
1565.0,-5,-2,-2,9,0,-3,3,-2,-12,-14,-11,-8
1566.0,-5,-2,-2,8,0,-3,3,-2,-12,-14,-11,-8
1567.0,-5,-1,-2,8,0,-3,2,-2,-12,-14,-11,-8
1568.0,-5,-1,-2,8,0,-3,2,-2,-13,-14,-11,-8
1569.0,-4,-1,-2,8,0,-3,2,-2,-13,-14,-11,-8
1570.0,-4,-1,-3,8,1,-3,2,-2,-13,-14,-11,-7
1571.0,-4,-1,-3,8,1,-3,2,-2,-13,-14,-11,-7
1572.0,-4,-1,-3,8,1,-3,1,-2,-13,-14,-10,-7
1573.0,-4,-1,-3,8,1,-3,1,-2,-13,-14,-10,-7
1574.0,-3,-1,-3,7,1,-3,1,-2,-13,-14,-10,-6
1575.0,-3,0,-3,7,1,-3,1,-2,-13,-14,-10,-6
1576.0,-3,0,-3,7,1,-3,1,-2,-13,-14,-10,-6
1577.0,-3,0,-3,7,1,-3,0,-2,-12,-14,-10,-6
1578.0,-3,0,-3,7,2,-3,0,-2,-12,-14,-9,-5
1579.0,-2,0,-3,7,2,-3,0,-2,-12,-13,-9,-5
1580.0,-2,0,-3,7,2,-3,0,-2,-12,-13,-9,-5
1581.0,-2,1,-3,6,2,-3,0,-2,-12,-13,-9,-5
1582.0,-2,1,-3,6,2,-3,0,-2,-12,-13,-9,-4
1583.0,-2,1,-3,6,2,-3,0,-2,-12,-13,-8,-4
1584.0,-2,1,-3,6,2,-3,0,-2,-11,-13,-8,-4
1585.0,-1,1,-3,6,2,-3,0,-2,-11,-12,-8,-4
1586.0,-1,1,-3,6,2,-3,-1,-2,-11,-12,-8,-3
1587.0,-1,2,-3,5,2,-2,-1,-2,-11,-12,-7,-3
1588.0,-1,2,-4,5,3,-2,-1,-2,-11,-12,-7,-3
1589.0,0,2,-4,5,3,-2,-1,-2,-10,-11,-7,-3
1590.0,0,2,-4,5,3,-2,-1,-2,-10,-11,-7,-2
1591.0,0,2,-4,5,3,-2,-2,-2,-10,-11,-6,-2
1592.0,0,3,-4,5,3,-2,-2,-2,-9,-10,-6,-2
1593.0,1,3,-4,4,3,-2,-2,-2,-9,-10,-6,-2
1594.0,1,3,-4,4,3,-2,-2,-2,-9,-10,-6,-1
1595.0,1,3,-4,4,3,-2,-2,-2,-8,-9,-5,-1
1596.0,1,4,-4,4,3,-2,-2,-2,-8,-9,-5,-1
1597.0,1,4,-4,4,3,-2,-2,-2,-8,-9,-5,-1
1598.0,1,4,-4,3,3,-2,-3,-2,-7,-8,-4,-1
1599.0,1,4,-4,3,3,-2,-3,-2,-7,-8,-4,0
1600.0,1,4,-4,3,3,-2,-3,-2,-6,-8,-4,0
1601.0,1,5,-4,3,3,-1,-3,-1,-6,-7,-4,0
1602.0,1,5,-4,3,3,-1,-3,-1,-6,-7,-3,0
1603.0,1,5,-4,2,3,-1,-3,-1,-6,-7,-3,0
1604.0,2,5,-4,2,3,-1,-3,-1,-6,-6,-3,0
1605.0,2,6,-4,2,3,-1,-3,-1,-5,-6,-3,0
1606.0,2,6,-4,2,3,-1,-3,0,-5,-5,-2,0
1607.0,2,6,-4,2,3,-1,-3,0,-4,-5,-2,0
1608.0,2,6,-4,2,4,-1,-3,0,-4,-5,-2,0
1609.0,2,6,-3,1,4,0,-3,0,-3,-4,-2,0
1610.0,2,6,-3,1,4,0,-3,1,-3,-4,-2,0
1611.0,2,6,-3,1,4,0,-3,1,-3,-4,-2,0
1612.0,2,6,-3,1,4,0,-3,1,-2,-4,-2,0
1613.0,2,6,-3,1,4,0,-3,1,-2,-4,-2,0
1614.0,2,6,-3,1,4,0,-3,1,-1,-4,-2,0
1615.0,2,7,-3,1,4,0,-3,1,-1,-3,-1,0
1616.0,2,7,-3,1,4,0,-3,1,-1,-3,-1,0
1617.0,3,7,-3,1,4,1,-3,1,-1,-3,-1,0
1618.0,3,7,-3,1,4,1,-3,2,0,-3,-1,0
1619.0,3,7,-3,1,4,1,-3,2,0,-3,-1,0
1620.0,3,7,-3,1,4,1,-3,2,0,-2,-1,0
1621.0,3,7,-3,1,4,1,-3,2,1,-2,-1,0
1622.0,3,7,-3,1,4,1,-3,2,1,-2,-1,0
1623.0,3,7,-3,1,4,1,-3,2,1,-1,0,0
1624.0,2,7,-2,0,4,1,-3,2,1,-1,0,0
1625.0,2,7,-2,0,4,1,-3,2,1,-1,0,0
1626.0,2,7,-2,0,4,1,-3,2,2,-1,0,0
1627.0,2,8,-2,0,4,1,-3,2,2,-1,0,0
1628.0,2,8,-2,0,4,1,-3,2,2,-1,0,0
1629.0,2,8,-2,0,4,1,-3,2,2,0,0,0
1630.0,2,8,-2,0,3,1,-2,2,2,0,0,0
1631.0,2,8,-2,0,3,1,-2,2,2,0,0,0
1632.0,2,8,-2,0,3,1,-2,2,2,0,0,0
1633.0,2,8,-2,0,3,1,-2,2,2,0,0,0
1634.0,2,8,-2,0,3,1,-2,2,2,0,0,0
1635.0,2,8,-2,0,3,1,-2,2,2,0,0,0
1636.0,2,8,-2,0,3,2,-1,2,3,0,0,0
1637.0,2,9,-2,0,3,2,-1,1,3,1,0,0
1638.0,2,9,-2,0,3,2,-1,1,3,1,0,0
1639.0,2,9,-2,0,3,2,-1,1,3,1,0,0
1640.0,2,9,-2,0,3,2,-1,1,3,1,0,0
1641.0,2,9,-2,0,3,2,-1,1,3,1,0,0
1642.0,2,9,-2,0,3,2,-1,1,3,1,0,0
1643.0,1,9,-1,0,3,2,-1,1,3,1,0,0
1644.0,1,9,-1,0,3,2,-1,1,3,1,0,0
1645.0,1,9,-1,0,3,3,-1,1,3,1,0,0
1646.0,1,9,-1,-1,3,3,-1,1,3,1,0,0
1647.0,1,9,-1,-1,3,3,-1,1,3,1,0,0
1648.0,1,9,-1,-1,3,3,-1,1,3,1,0,0
1649.0,1,9,-1,-1,3,3,-1,1,3,1,0,0
1650.0,1,9,-1,-1,3,3,-1,1,3,1,0,0
1651.0,1,9,-1,-1,3,3,-1,1,3,1,0,0
1652.0,1,10,0,-1,3,3,-1,0,3,1,0,0
1653.0,1,10,0,-1,3,3,-1,0,3,1,0,0
1654.0,2,10,0,-1,3,3,-1,0,3,1,0,0
1655.0,2,10,0,-1,3,3,-1,0,3,1,0,0
1656.0,2,10,0,-1,3,3,-1,0,3,1,0,0
1657.0,2,10,0,-1,3,4,-1,0,3,1,0,0
1658.0,2,10,0,-1,3,4,-1,0,3,1,0,0
1659.0,1,10,0,-1,3,4,-1,0,3,1,0,0
